TiNbZrCu_12	
2θ, °	Intensity, counts
30	4487.98
30.02	4608.088
30.04	4429.595
30.06	4433.404
30.08	4425.593
30.1	4578.728
30.12	4461.728
30.14	4429.827
30.16	4472.014
30.18	4522.691
30.2	4279.925
30.22	4539.446
30.24	4444.262
30.26	4378.888
30.28	4341.024
30.3	4468.657
30.32	4445.537
30.34	4348.074
30.36	4387.616
30.38	4418.324
30.4	4414.371
30.42	4359.183
30.44	4317.818
30.46	4310.73
30.48	4301.044
30.5	4419.851
30.52	4405.355
30.54	4338.208
30.56	4290.627
30.58	4355.605
30.6	4294.638
30.62	4342.585
30.64	4195.388
30.66	4262.507
30.68	4248.686
30.7	4366.751
30.72	4351.195
30.74	4388.023
30.76	4359.537
30.78	4348.33
30.8	4281.041
30.82	4242.151
30.84	4266.615
30.86	4291.607
30.88	4309.315
30.9	4237.792
30.92	4179.126
30.94	4318.477
30.96	4250.098
30.98	4159.781
31	4231.995
31.02	4298.99
31.04	4265.672
31.06	4333.415
31.08	4316.63
31.1	4252.28
31.12	4198.853
31.14	4239.543
31.16	4348.816
31.18	4236.302
31.2	4388.922
31.22	4268.037
31.24	4301.654
31.26	4318.456
31.28	4355.548
31.3	4396.993
31.32	4278.104
31.34	4261.765
31.36	4339.55
31.38	4276.614
31.4	4282.893
31.42	4362.77
31.44	4282.774
31.46	4324.109
31.48	4377.131
31.5	4292.506
31.52	4348.364
31.54	4374.208
31.56	4290.559
31.58	4278.549
31.6	4271.212
31.62	4195.845
31.64	4137.188
31.66	4183.783
31.68	4149.986
31.7	4122.722
31.72	4048.532
31.74	4133.183
31.76	3965.093
31.78	4113.138
31.8	4037.911
31.82	4000.545
31.84	3934.405
31.86	3942.074
31.88	3983.212
31.9	3881.439
31.92	3947.958
31.94	3870.618
31.96	3923.416
31.98	3824.355
32	3963.759
32.02	3974.39
32.04	3882.989
32.06	3773.029
32.08	3934.112
32.1	3895.344
32.12	3893.852
32.14	3913.86
32.16	3859.013
32.18	3862.781
32.2	3940.976
32.22	3958.984
32.24	3909.224
32.26	3903.015
32.28	3723.535
32.3	3818.112
32.32	3728.948
32.34	3740.275
32.36	3690.245
32.38	3813.122
32.4	3845.927
32.42	3834.056
32.44	3804.229
32.46	3737.898
32.48	3710.507
32.5	3659.814
32.52	3680.141
32.54	3726.357
32.56	3720.203
32.58	3656.049
32.6	3701.026
32.62	3730.586
32.64	3698.539
32.66	3713.197
32.68	3716.033
32.7	3675.059
32.72	3706.544
32.74	3839.964
32.76	3691.399
32.78	3622.98
32.8	3573.668
32.82	3716.438
32.84	3656.063
32.86	3705.678
32.88	3672.98
32.9	3676.15
32.92	3729.29
32.94	3717.94
32.96	3688.857
32.98	3587.317
33	3540.678
33.02	3599.419
33.04	3631.248
33.06	3591.754
33.08	3527.647
33.1	3509.222
33.12	3535.927
33.14	3536.709
33.16	3588.205
33.18	3553.113
33.2	3546.939
33.22	3534.035
33.24	3583.618
33.26	3630.69
33.28	3560.068
33.3	3529.815
33.32	3605.829
33.34	3521.978
33.36	3601.912
33.38	3456.625
33.4	3468.861
33.42	3396
33.44	3474.188
33.46	3430.638
33.48	3593.453
33.5	3485.811
33.52	3499.973
33.54	3556.361
33.56	3503.443
33.58	3481.406
33.6	3507.554
33.62	3453.284
33.64	3516.777
33.66	3407.092
33.68	3366.645
33.7	3433.919
33.72	3430.188
33.74	3388.385
33.76	3561.315
33.78	3343.955
33.8	3316.772
33.82	3509.5
33.84	3418.183
33.86	3470.507
33.88	3342.939
33.9	3415.515
33.92	3312.299
33.94	3535.308
33.96	3335.629
33.98	3318.194
34	3311.542
34.02	3194.783
34.04	3399.733
34.06	3309.807
34.08	3358.61
34.1	3308.865
34.12	3343.745
34.14	3278.88
34.16	3334.467
34.18	3339.691
34.2	3299.453
34.22	3334.252
34.24	3461.956
34.26	3268.462
34.28	3368.891
34.3	3266.116
34.32	3373.685
34.34	3230.117
34.36	3264.436
34.38	3257.865
34.4	3206.352
34.42	3187.599
34.44	3252.382
34.46	3217.328
34.48	3321.854
34.5	3284.71
34.52	3226.767
34.54	3196.837
34.56	3251.98
34.58	3270.879
34.6	3223.792
34.62	3267.582
34.64	3188.793
34.66	3214.284
34.68	3228.122
34.7	3193.339
34.72	3262.833
34.74	3166.445
34.76	3204.524
34.78	3312.233
34.8	3314.587
34.82	3268.34
34.84	3272.584
34.86	3247.031
34.88	3180.841
34.9	3206.004
34.92	3113.562
34.94	3153.96
34.96	3066.928
34.98	3243.673
35	3013.259
35.02	3194.399
35.04	3242.87
35.06	3196.04
35.08	3044.196
35.1	3158.209
35.12	3216.741
35.14	3067.336
35.16	3052.176
35.18	3038.291
35.2	3096.729
35.22	3113.398
35.24	3115.609
35.26	3011.096
35.28	3045.192
35.3	3115.931
35.32	3046.01
35.34	3042.93
35.36	3078.13
35.38	3082.291
35.4	2985.823
35.42	3101.736
35.44	2963.841
35.46	3003.516
35.48	2990.842
35.5	3025.311
35.52	3034.404
35.54	3038.426
35.56	3051.585
35.58	3098.732
35.6	3066.591
35.62	2960.561
35.64	3056.354
35.66	2966.378
35.68	2985.368
35.7	3051.601
35.72	3039.592
35.74	2927.816
35.76	2885.822
35.78	2979.593
35.8	2933.617
35.82	3025.812
35.84	3010.498
35.86	3001.021
35.88	3032.723
35.9	2971.811
35.92	3032.183
35.94	2957.361
35.96	2980.698
35.98	3049.628
36	2910.11
36.02	2961.324
36.04	2938.511
36.06	3000.902
36.08	2948.248
36.1	2963.384
36.12	2963.7
36.14	2888.412
36.16	2871.551
36.18	2934.184
36.2	2875.038
36.22	2831.01
36.24	2868.81
36.26	2837.782
36.28	2829.21
36.3	2884.946
36.32	2823.46
36.34	2816.422
36.36	2845.029
36.38	2787.069
36.4	2785.56
36.42	2850.953
36.44	2771.5
36.46	2740.644
36.48	2782.567
36.5	2841.764
36.52	2844.444
36.54	2795.933
36.56	2879.332
36.58	2893.456
36.6	2693.363
36.62	2821.946
36.64	2815
36.66	2828
36.68	2799.896
36.7	2742.063
36.72	2798.693
36.74	2706.248
36.76	2823.825
36.78	2807.193
36.8	2727.859
36.82	2788.632
36.84	2718.348
36.86	2748.797
36.88	2767.792
36.9	2702.401
36.92	2780.748
36.94	2698.065
36.96	2707.098
36.98	2718.731
37	2719.546
37.02	2743.241
37.04	2780.327
37.06	2681.185
37.08	2805.799
37.1	2814.094
37.12	2677.993
37.14	2753.649
37.16	2751.7
37.18	2780.902
37.2	2802.689
37.22	2705.388
37.24	2735.475
37.26	2807.963
37.28	2824.923
37.3	2802.342
37.32	2868.881
37.34	2831.748
37.36	2886.36
37.38	2907.274
37.4	2895.655
37.42	2859.828
37.44	2938
37.46	2875.523
37.48	2933.038
37.5	2925.153
37.52	2908.011
37.54	2894.325
37.56	2911.079
37.58	2953.683
37.6	2939.979
37.62	2893.436
37.64	2861.729
37.66	3018.42
37.68	3023.105
37.7	2912.156
37.72	2985.873
37.74	2999.973
37.76	3007.827
37.78	3018.842
37.8	3013.682
37.82	3033.991
37.84	3105.282
37.86	3034.862
37.88	3031.696
37.9	3117.602
37.92	3123.172
37.94	3091.712
37.96	3179.635
37.98	3169.448
38	3233.469
38.02	3242.33
38.04	3222.267
38.06	3318.124
38.08	3390.259
38.1	3407.252
38.12	3342.844
38.14	3416.576
38.16	3426.74
38.18	3545.136
38.2	3633.039
38.22	3650.414
38.24	3774.206
38.26	3827.327
38.28	3911.722
38.3	3936.629
38.32	4123.495
38.34	4205.595
38.36	4276.702
38.38	4487.664
38.4	4583.965
38.42	5079.943
38.44	5463.16
38.46	6071.466
38.48	6670.951
38.5	7285.165
38.52	8076.071
38.54	9402.439
38.56	11812.85
38.58	15865.59
38.6	23391.72
38.62	35245.18
38.64	49790.91
38.66	57607.55
38.68	53001.89
38.7	43689.22
38.72	36789.08
38.74	36043.11
38.76	35242.15
38.78	30261.72
38.8	22216.8
38.82	15443.51
38.84	11023.85
38.86	8388.81
38.88	7039.048
38.9	6092.752
38.92	5422.454
38.94	4992.042
38.96	4727.534
38.98	4436.633
39	4264.841
39.02	4108.338
39.04	4004.304
39.06	3973.292
39.08	3779.234
39.1	3656.618
39.12	3650.68
39.14	3528.377
39.16	3631.817
39.18	3480.026
39.2	3430.679
39.22	3268.043
39.24	3211.903
39.26	3168.615
39.28	3138.924
39.3	3181.346
39.32	3133.389
39.34	3017.184
39.36	2987.861
39.38	3000.326
39.4	2953.498
39.42	2925.318
39.44	2965.309
39.46	2866.674
39.48	2757.799
39.5	2870.492
39.52	2817.335
39.54	2820.293
39.56	2799.187
39.58	2806.601
39.6	2854.319
39.62	2671.895
39.64	2654.227
39.66	2732.627
39.68	2689.832
39.7	2653.849
39.72	2695.44
39.74	2703.332
39.76	2620.219
39.78	2634.479
39.8	2659.439
39.82	2667.516
39.84	2525.721
39.86	2568.918
39.88	2524.765
39.9	2544.875
39.92	2479.411
39.94	2475.042
39.96	2498.747
39.98	2443.443
40	2460.011
40.02	2541.981
40.04	2493.678
40.06	2471.703
40.08	2508.741
40.1	2486.364
40.12	2468.043
40.14	2431.264
40.16	2375.923
40.18	2473.718
40.2	2387.423
40.22	2504.187
40.24	2522.608
40.26	2490.032
40.28	2397.451
40.3	2444.111
40.32	2515.647
40.34	2401.444
40.36	2376.12
40.38	2469.916
40.4	2373.397
40.42	2442.523
40.44	2394.642
40.46	2406.471
40.48	2398.726
40.5	2341.667
40.52	2397.642
40.54	2493.17
40.56	2358.02
40.58	2427.803
40.6	2380.351
40.62	2524.53
40.64	2440.137
40.66	2356.842
40.68	2397.477
40.7	2458.389
40.72	2322.783
40.74	2376.036
40.76	2307.821
40.78	2375.655
40.8	2340.092
40.82	2423.905
40.84	2300.311
40.86	2294.747
40.88	2300.845
40.9	2194.74
40.92	2365.29
40.94	2333.395
40.96	2406.91
40.98	2284.698
41	2361.683
41.02	2311.594
41.04	2304.316
41.06	2347.598
41.08	2392.175
41.1	2381.763
41.12	2271.657
41.14	2357.682
41.16	2235.452
41.18	2326.319
41.2	2241.088
41.22	2218.916
41.24	2361.079
41.26	2243.611
41.28	2317.626
41.3	2258.707
41.32	2270.571
41.34	2201.157
41.36	2246.827
41.38	2279.947
41.4	2181.338
41.42	2252.437
41.44	2292.075
41.46	2289.514
41.48	2201.797
41.5	2241.987
41.52	2282.846
41.54	2224.227
41.56	2255.487
41.58	2192.478
41.6	2283.406
41.62	2157.108
41.64	2221.115
41.66	2200.463
41.68	2253.514
41.7	2204.45
41.72	2219.318
41.74	2333.393
41.76	2152.848
41.78	2235.639
41.8	2263.204
41.82	2218.25
41.84	2076.647
41.86	2106.704
41.88	2194.924
41.9	2158.588
41.92	2278.711
41.94	2096.764
41.96	2199.892
41.98	2162.037
42	2168.723
42.02	2223.193
42.04	2131.508
42.06	2135.562
42.08	2157.772
42.1	2186.27
42.12	2082.349
42.14	2194.792
42.16	2125.578
42.18	2131.191
42.2	2143.278
42.22	2145.984
42.24	2109.171
42.26	2095.512
42.28	2088.03
42.3	2123.361
42.32	2130.519
42.34	2160.395
42.36	2171.363
42.38	2109.603
42.4	2125.471
42.42	2082.183
42.44	2031.686
42.46	2127.467
42.48	2135.794
42.5	2143.911
42.52	2101.271
42.54	2095.421
42.56	2116.937
42.58	2139.349
42.6	2044.029
42.62	2147.571
42.64	2143.716
42.66	2151.02
42.68	2042.828
42.7	2093.11
42.72	2068.13
42.74	2062.276
42.76	2044.842
42.78	2084.645
42.8	2119.216
42.82	2076.09
42.84	2135.532
42.86	2052.955
42.88	2034.118
42.9	1973.114
42.92	2094.156
42.94	2079.528
42.96	2118.55
42.98	2102.981
43	2117.687
43.02	1980.405
43.04	2103.574
43.06	2019.431
43.08	2116.098
43.1	2080.057
43.12	2107.087
43.14	2031.42
43.16	1999.379
43.18	2032.359
43.2	2012.057
43.22	2009.176
43.24	2076.113
43.26	2081.609
43.28	2017.784
43.3	1996.812
43.32	1981.905
43.34	1948.95
43.36	1984.098
43.38	2019.62
43.4	2013.291
43.42	2034.052
43.44	2026.071
43.46	2029.953
43.48	2020.637
43.5	1981.916
43.52	1992.327
43.54	1993.21
43.56	1983.053
43.58	2013.885
43.6	1967.271
43.62	2014.797
43.64	2070.7
43.66	1952.787
43.68	1993.615
43.7	2060.816
43.72	2045.773
43.74	1935.738
43.76	2038.387
43.78	1938.072
43.8	2045.913
43.82	1951.762
43.84	1932.227
43.86	1932.451
43.88	1920.323
43.9	2055.113
43.92	2019.82
43.94	1996.073
43.96	1999.974
43.98	1995.316
44	1916.415
44.02	1900.783
44.04	2043.825
44.06	1936.523
44.08	1963.963
44.1	1984.502
44.12	1930.644
44.14	1973.791
44.16	2026.101
44.18	1934.944
44.2	1908.297
44.22	1985.293
44.24	1989.535
44.26	1917.156
44.28	1974.319
44.3	2042.371
44.32	1983.791
44.34	1903.529
44.36	1907.444
44.38	1984.59
44.4	1921.924
44.42	1956.368
44.44	1934.927
44.46	1909.296
44.48	1937.039
44.5	2019.43
44.52	1923.258
44.54	1838.991
44.56	1980.155
44.58	1983.905
44.6	1995.827
44.62	1953.895
44.64	2036.158
44.66	1879.662
44.68	1856.176
44.7	1962.713
44.72	1932.144
44.74	1877.438
44.76	1903.233
44.78	1885.919
44.8	1976.215
44.82	1832.171
44.84	1872.046
44.86	1896.225
44.88	1893.058
44.9	1886.913
44.92	1976.116
44.94	1885.828
44.96	1771.124
44.98	1989.622
45	1952.713
45.02	1933.987
45.04	1906.923
45.06	1861.683
45.08	1879.988
45.1	1887.189
45.12	1852.221
45.14	1852.47
45.16	1955.679
45.18	1888.91
45.2	1929.506
45.22	1896.271
45.24	1877.443
45.26	1931.174
45.28	1913.809
45.3	1915.806
45.32	1898.223
45.34	1935.515
45.36	1922.744
45.38	1894.09
45.4	1850.807
45.42	1888.954
45.44	1913.417
45.46	1878.97
45.48	1847.702
45.5	1847.588
45.52	1857.92
45.54	1885.073
45.56	1883.31
45.58	1885.055
45.6	1870.492
45.62	1781.809
45.64	1889.894
45.66	1823.706
45.68	1880.414
45.7	1861.149
45.72	1886.83
45.74	1866.191
45.76	1823.793
45.78	1903.152
45.8	1821.739
45.82	1882.675
45.84	1903.435
45.86	1830.266
45.88	1779.693
45.9	1842.612
45.92	1818.037
45.94	1782.569
45.96	1881.402
45.98	1843.411
46	1800.302
46.02	1837.27
46.04	1756.64
46.06	1782.846
46.08	1881.74
46.1	1849.604
46.12	1755.596
46.14	1830.636
46.16	1929.329
46.18	1872.057
46.2	1797.498
46.22	1738.723
46.24	1865.686
46.26	1874.722
46.28	1780.208
46.3	1774.057
46.32	1820.533
46.34	1775.519
46.36	1885.571
46.38	1758.217
46.4	1715.138
46.42	1833.561
46.44	1790.417
46.46	1848.728
46.48	1794.769
46.5	1816.988
46.52	1846.276
46.54	1704.918
46.56	1783.474
46.58	1799.628
46.6	1792.854
46.62	1761.757
46.64	1756.831
46.66	1757.411
46.68	1742.823
46.7	1798.051
46.72	1821.661
46.74	1806.789
46.76	1758.613
46.78	1763.567
46.8	1775.618
46.82	1725.712
46.84	1692.132
46.86	1765.547
46.88	1798.078
46.9	1742.745
46.92	1709.2
46.94	1768.419
46.96	1818.553
46.98	1732.242
47	1798.864
47.02	1812.552
47.04	1719.861
47.06	1722.087
47.08	1792.895
47.1	1806.485
47.12	1724.511
47.14	1802.513
47.16	1795.407
47.18	1774.296
47.2	1823.793
47.22	1736.158
47.24	1731.656
47.26	1772.267
47.28	1763.626
47.3	1783.562
47.32	1752.544
47.34	1761.803
47.36	1710.85
47.38	1707.647
47.4	1750.584
47.42	1708.932
47.44	1716.372
47.46	1707.248
47.48	1750.897
47.5	1698.41
47.52	1700.711
47.54	1732.966
47.56	1722.571
47.58	1741.903
47.6	1667.135
47.62	1742.05
47.64	1755.275
47.66	1713.597
47.68	1778.921
47.7	1730.937
47.72	1735.531
47.74	1742.695
47.76	1700.452
47.78	1694.718
47.8	1705.396
47.82	1747.343
47.84	1764.968
47.86	1779.475
47.88	1725.33
47.9	1666.422
47.92	1709.051
47.94	1689.282
47.96	1667.325
47.98	1671.081
48	1726.838
48.02	1693.17
48.04	1717.128
48.06	1810.447
48.08	1650.076
48.1	1794.256
48.12	1631.586
48.14	1650.412
48.16	1609.322
48.18	1740.359
48.2	1603.73
48.22	1689.732
48.24	1639.239
48.26	1689.033
48.28	1697.431
48.3	1735.26
48.32	1678.889
48.34	1690.712
48.36	1667.223
48.38	1719.166
48.4	1719.032
48.42	1678.886
48.44	1710.528
48.46	1705.621
48.48	1671.563
48.5	1706.963
48.52	1665.918
48.54	1641.177
48.56	1660.173
48.58	1666.029
48.6	1740.163
48.62	1722.219
48.64	1676.932
48.66	1713.351
48.68	1570.04
48.7	1671.138
48.72	1642.864
48.74	1691.394
48.76	1728.084
48.78	1694.157
48.8	1644.714
48.82	1600.36
48.84	1737.444
48.86	1663.548
48.88	1672.442
48.9	1653.77
48.92	1672.906
48.94	1611.498
48.96	1651.284
48.98	1726.122
49	1676.158
49.02	1668.971
49.04	1641.51
49.06	1645.67
49.08	1643.341
49.1	1692.156
49.12	1663.778
49.14	1643.965
49.16	1673.721
49.18	1714.301
49.2	1688.72
49.22	1690.449
49.24	1655.856
49.26	1638.915
49.28	1688.725
49.3	1717.862
49.32	1696.639
49.34	1661.387
49.36	1697.415
49.38	1630.737
49.4	1736.603
49.42	1646.34
49.44	1684.642
49.46	1726.972
49.48	1633.985
49.5	1672.854
49.52	1736.338
49.54	1700.767
49.56	1712.19
49.58	1672.905
49.6	1732.501
49.62	1653.773
49.64	1718.864
49.66	1699.822
49.68	1653.124
49.7	1654.768
49.72	1764.467
49.74	1636.733
49.76	1639.964
49.78	1643.599
49.8	1642.972
49.82	1716.048
49.84	1694.653
49.86	1776.119
49.88	1708.416
49.9	1689.059
49.92	1697.829
49.94	1636.441
49.96	1685.46
49.98	1729.491
50	1714.476
50.02	1717.431
50.04	1719.657
50.06	1751.133
50.08	1805.316
50.1	1704.27
50.12	1737.723
50.14	1750.738
50.16	1701.641
50.18	1734.956
50.2	1734.009
50.22	1801.175
50.24	1790.052
50.26	1806.234
50.28	1751.128
50.3	1779.714
50.32	1761.913
50.34	1807.592
50.36	1891.345
50.38	1817.098
50.4	1828.447
50.42	1796.769
50.44	1786.342
50.46	1856.255
50.48	1767.064
50.5	1782.746
50.52	1804.696
50.54	1754.392
50.56	1767.101
50.58	1799.939
50.6	1820.031
50.62	1850.334
50.64	1835.433
50.66	1908.885
50.68	1738.277
50.7	1894.288
50.72	1831.887
50.74	1800.703
50.76	1799.639
50.78	1826.863
50.8	1873.918
50.82	1808.15
50.84	1749.944
50.86	1782.376
50.88	1824.721
50.9	1740.017
50.92	1753.256
50.94	1798.239
50.96	1805.947
50.98	1760.443
51	1802.223
51.02	1729.798
51.04	1702.964
51.06	1719.613
51.08	1792.654
51.1	1747.344
51.12	1792.141
51.14	1768.523
51.16	1752.921
51.18	1737.882
51.2	1683.354
51.22	1695.889
51.24	1687.758
51.26	1668.365
51.28	1724.032
51.3	1667.7
51.32	1668.689
51.34	1685.202
51.36	1675.873
51.38	1647.213
51.4	1572.183
51.42	1641.696
51.44	1549.984
51.46	1656.426
51.48	1626.92
51.5	1559.548
51.52	1574.9
51.54	1644.398
51.56	1616.792
51.58	1610.609
51.6	1649.866
51.62	1710.749
51.64	1668.863
51.66	1626.349
51.68	1586.165
51.7	1540.265
51.72	1648.977
51.74	1642.825
51.76	1633.745
51.78	1565.665
51.8	1646.392
51.82	1562.619
51.84	1542.822
51.86	1563.258
51.88	1630.963
51.9	1580.055
51.92	1469.93
51.94	1559.543
51.96	1534.602
51.98	1568.107
52	1534.381
52.02	1563.097
52.04	1531.055
52.06	1505.432
52.08	1643.93
52.1	1561.354
52.12	1573.062
52.14	1535.179
52.16	1588.065
52.18	1546.602
52.2	1550.476
52.22	1549.75
52.24	1556.337
52.26	1607.099
52.28	1527.284
52.3	1588.232
52.32	1522.738
52.34	1550.377
52.36	1604.612
52.38	1646.537
52.4	1575.086
52.42	1558.622
52.44	1572.427
52.46	1555.071
52.48	1567.229
52.5	1592.219
52.52	1486.906
52.54	1587.599
52.56	1518.582
52.58	1562.756
52.6	1534.341
52.62	1538.232
52.64	1496.787
52.66	1539.517
52.68	1581.88
52.7	1483.705
52.72	1545.068
52.74	1508.606
52.76	1561.002
52.78	1533.841
52.8	1507.867
52.82	1505.693
52.84	1543.304
52.86	1518.573
52.88	1575.327
52.9	1595.768
52.92	1567.213
52.94	1525.239
52.96	1567.919
52.98	1507.482
53	1476.341
53.02	1566.986
53.04	1558.085
53.06	1514.317
53.08	1539.383
53.1	1589.645
53.12	1580.72
53.14	1565.954
53.16	1527.838
53.18	1566.458
53.2	1532.85
53.22	1493.56
53.24	1512.126
53.26	1532.363
53.28	1576.778
53.3	1628.334
53.32	1583.47
53.34	1598.676
53.36	1569.108
53.38	1550.048
53.4	1561.428
53.42	1538.954
53.44	1573.137
53.46	1542.057
53.48	1641.622
53.5	1601.234
53.52	1504.493
53.54	1541.233
53.56	1535.611
53.58	1539.304
53.6	1490.55
53.62	1504.387
53.64	1615.53
53.66	1544.823
53.68	1532.09
53.7	1587.943
53.72	1624.558
53.74	1558.242
53.76	1555.982
53.78	1605.439
53.8	1569.306
53.82	1638.079
53.84	1554.049
53.86	1563.378
53.88	1549.717
53.9	1661.171
53.92	1554.336
53.94	1548.279
53.96	1546.073
53.98	1534.404
54	1533.177
54.02	1545.971
54.04	1584.232
54.06	1613.856
54.08	1577.171
54.1	1557.319
54.12	1527.646
54.14	1601.458
54.16	1580.657
54.18	1622.151
54.2	1515.326
54.22	1578.881
54.24	1568.128
54.26	1578.744
54.28	1596.974
54.3	1535.412
54.32	1502.16
54.34	1580.835
54.36	1651.413
54.38	1545.486
54.4	1514.039
54.42	1506.366
54.44	1552.089
54.46	1583.384
54.48	1589.648
54.5	1609.566
54.52	1633.313
54.54	1630.396
54.56	1601.712
54.58	1662.897
54.6	1616.739
54.62	1653.821
54.64	1618.523
54.66	1537.931
54.68	1579.136
54.7	1652.311
54.72	1593.331
54.74	1591.662
54.76	1601.561
54.78	1602.712
54.8	1615.16
54.82	1610.958
54.84	1643.539
54.86	1632.531
54.88	1568.421
54.9	1627.884
54.92	1687.037
54.94	1627.856
54.96	1652.505
54.98	1685.772
55	1688.905
55.02	1623.966
55.04	1704.213
55.06	1672.94
55.08	1691.225
55.1	1708.86
55.12	1652.529
55.14	1787.709
55.16	1661.691
55.18	1658.759
55.2	1730.003
55.22	1724.286
55.24	1801.974
55.26	1745.529
55.28	1772.4
55.3	1742.702
55.32	1875.479
55.34	1844.312
55.36	1865.666
55.38	1893.707
55.4	1865.787
55.42	1835.549
55.44	1896.773
55.46	1945.167
55.48	1959.578
55.5	1947.449
55.52	1977.693
55.54	2027.503
55.56	2086.007
55.58	2142.485
55.6	2191.752
55.62	2250.938
55.64	2350.043
55.66	2561.332
55.68	2669.09
55.7	2842.795
55.72	3208.998
55.74	3583.74
55.76	3991.897
55.78	4731.098
55.8	5506.258
55.82	6202.102
55.84	6758.075
55.86	6796.077
55.88	6557.311
55.9	6204.448
55.92	5837.194
55.94	5468.148
55.96	5447.527
55.98	5160.952
56	4992.749
56.02	4712.637
56.04	4325.764
56.06	3804.704
56.08	3508.751
56.1	3191.299
56.12	2822.742
56.14	2640.983
56.16	2426.166
56.18	2253.019
56.2	2231.913
56.22	2123.993
56.24	2090.609
56.26	1942.249
56.28	1926.181
56.3	1878.009
56.32	1893.054
56.34	1918.534
56.36	1910.58
56.38	1889.852
56.4	1910.49
56.42	1846.321
56.44	1832.176
56.46	1831.427
56.48	1739.95
56.5	1844.711
56.52	1767.422
56.54	1716.99
56.56	1687.256
56.58	1733.732
56.6	1717.557
56.62	1722.855
56.64	1735.637
56.66	1675.03
56.68	1650.337
56.7	1628.597
56.72	1669.53
56.74	1739.1
56.76	1610.05
56.78	1555.908
56.8	1582.642
56.82	1598.033
56.84	1632.659
56.86	1603.112
56.88	1616.249
56.9	1580.454
56.92	1525.798
56.94	1514.184
56.96	1533.86
56.98	1519.815
57	1485.467
57.02	1590.299
57.04	1518.209
57.06	1508.096
57.08	1534.235
57.1	1484.7
57.12	1626.287
57.14	1491.324
57.16	1529.466
57.18	1521.651
57.2	1479.698
57.22	1457.827
57.24	1473.542
57.26	1490.979
57.28	1538.649
57.3	1556.017
57.32	1468.059
57.34	1500.093
57.36	1509.293
57.38	1425.781
57.4	1508.821
57.42	1486.513
57.44	1505.286
57.46	1501.06
57.48	1443.958
57.5	1438.328
57.52	1404.284
57.54	1482.103
57.56	1493.235
57.58	1474.831
57.6	1479.422
57.62	1477.031
57.64	1441.716
57.66	1490.31
57.68	1433.241
57.7	1463.335
57.72	1507.596
57.74	1437.044
57.76	1503.674
57.78	1419.686
57.8	1409.216
57.82	1468.688
57.84	1477.06
57.86	1487.013
57.88	1409.267
57.9	1446.958
57.92	1440.973
57.94	1346.143
57.96	1413.121
57.98	1428.393
58	1452.817
58.02	1416.417
58.04	1455.58
58.06	1458.901
58.08	1506.716
58.1	1412.419
58.12	1470.77
58.14	1407.402
58.16	1375.78
58.18	1380.305
58.2	1401.679
58.22	1353.162
58.24	1400.998
58.26	1453.772
58.28	1397.316
58.3	1460.942
58.32	1477.927
58.34	1418.614
58.36	1476.187
58.38	1471.72
58.4	1461.244
58.42	1393.604
58.44	1406.526
58.46	1460.835
58.48	1408.253
58.5	1414.46
58.52	1479.676
58.54	1440.153
58.56	1385.994
58.58	1374.313
58.6	1400.915
58.62	1415.964
58.64	1486.405
58.66	1419.763
58.68	1414.534
58.7	1390.769
58.72	1465.4
58.74	1427.652
58.76	1388.006
58.78	1384.707
58.8	1423.952
58.82	1430.591
58.84	1399.918
58.86	1465.896
58.88	1454.114
58.9	1421.966
58.92	1476.81
58.94	1476.846
58.96	1468.956
58.98	1459.418
59	1397.22
59.02	1438.316
59.04	1404.012
59.06	1445.528
59.08	1409.514
59.1	1366.298
59.12	1417.091
59.14	1419.167
59.16	1387.058
59.18	1442.161
59.2	1436.08
59.22	1467.381
59.24	1426.984
59.26	1471.156
59.28	1400.029
59.3	1423.045
59.32	1406.806
59.34	1436.847
59.36	1345.451
59.38	1412.234
59.4	1410.068
59.42	1447.947
59.44	1482.876
59.46	1471.365
59.48	1435.286
59.5	1400.353
59.52	1423.505
59.54	1447.259
59.56	1415.497
59.58	1421.841
59.6	1486.154
59.62	1466.625
59.64	1432.121
59.66	1342.929
59.68	1403.663
59.7	1352.973
59.72	1430.298
59.74	1420.599
59.76	1407.392
59.78	1402.423
59.8	1366.058
59.82	1399.072
59.84	1396.674
59.86	1405.634
59.88	1480.346
59.9	1427.382
59.92	1418.068
59.94	1453.241
59.96	1373.407
59.98	1378.522
60	1371.707
60.02	1364.412
60.04	1387.607
60.06	1419.682
60.08	1380.222
60.1	1448.432
60.12	1435.063
60.14	1394.599
60.16	1396.816
60.18	1330.349
60.2	1460.939
60.22	1398.254
60.24	1425.11
60.26	1376.072
60.28	1369.444
60.3	1363.173
60.32	1365.264
60.34	1378.276
60.36	1412.663
60.38	1353.819
60.4	1330.091
60.42	1398.995
60.44	1371.449
60.46	1451.324
60.48	1394.092
60.5	1402.657
60.52	1384.835
60.54	1394.309
60.56	1397.39
60.58	1416.109
60.6	1368.909
60.62	1383.897
60.64	1389.853
60.66	1372.384
60.68	1392.469
60.7	1389.869
60.72	1357.536
60.74	1388.798
60.76	1348.649
60.78	1379.569
60.8	1390.554
60.82	1342.061
60.84	1417.754
60.86	1416.668
60.88	1315.975
60.9	1444.822
60.92	1404.682
60.94	1369.636
60.96	1391.62
60.98	1427.731
61	1387.936
61.02	1380.732
61.04	1424.873
61.06	1344.873
61.08	1456.559
61.1	1426.613
61.12	1382.314
61.14	1393.975
61.16	1322.219
61.18	1358.305
61.2	1426.394
61.22	1348.425
61.24	1342.861
61.26	1406.881
61.28	1406.497
61.3	1361.056
61.32	1379.1
61.34	1398.497
61.36	1330.199
61.38	1351.639
61.4	1395.876
61.42	1379.601
61.44	1352.583
61.46	1422.199
61.48	1385.421
61.5	1394.163
61.52	1335.569
61.54	1407.322
61.56	1304.246
61.58	1368.454
61.6	1342.225
61.62	1392.464
61.64	1403.603
61.66	1436.495
61.68	1365.707
61.7	1334.767
61.72	1382.81
61.74	1344.859
61.76	1348.897
61.78	1442.17
61.8	1362.832
61.82	1345.744
61.84	1441.354
61.86	1399.917
61.88	1353.487
61.9	1362.485
61.92	1355.058
61.94	1339.891
61.96	1405.161
61.98	1397.901
62	1358.883
62.02	1397.685
62.04	1425.578
62.06	1384.942
62.08	1367.521
62.1	1425.918
62.12	1361.504
62.14	1364.944
62.16	1378.799
62.18	1471.519
62.2	1421.382
62.22	1366.96
62.24	1458.343
62.26	1410.252
62.28	1382.645
62.3	1322.594
62.32	1354.469
62.34	1418.836
62.36	1335.731
62.38	1396.472
62.4	1357.915
62.42	1396.524
62.44	1457.711
62.46	1450.676
62.48	1385.943
62.5	1366.854
62.52	1439.092
62.54	1439.327
62.56	1419.404
62.58	1363.886
62.6	1347.333
62.62	1402.645
62.64	1403.486
62.66	1348.2
62.68	1426.691
62.7	1315.9
62.72	1365.318
62.74	1355.432
62.76	1401.997
62.78	1355.184
62.8	1385.838
62.82	1437.678
62.84	1344.093
62.86	1423.317
62.88	1392.457
62.9	1285.524
62.92	1405.522
62.94	1380.338
62.96	1374.2
62.98	1419.26
63	1356.441
63.02	1364.697
63.04	1354.746
63.06	1303.642
63.08	1340.306
63.1	1385.218
63.12	1395.041
63.14	1254.6
63.16	1389.042
63.18	1320.3
63.2	1330.909
63.22	1321.317
63.24	1365.205
63.26	1375.914
63.28	1393.583
63.3	1346.984
63.32	1414.649
63.34	1379.134
63.36	1390.269
63.38	1355.475
63.4	1348.218
63.42	1331.474
63.44	1293.369
63.46	1301.834
63.48	1343.808
63.5	1417.228
63.52	1320.671
63.54	1291.698
63.56	1281.074
63.58	1329.191
63.6	1374.973
63.62	1385.597
63.64	1380.056
63.66	1364.958
63.68	1292.155
63.7	1353.948
63.72	1353.867
63.74	1373.062
63.76	1369.738
63.78	1409.548
63.8	1414.05
63.82	1342.317
63.84	1371.244
63.86	1356.537
63.88	1394.722
63.9	1351.449
63.92	1370.12
63.94	1374.43
63.96	1434.561
63.98	1398.694
64	1343.089
64.02	1369.345
64.04	1339.15
64.06	1399.617
64.08	1384.047
64.1	1379.104
64.12	1328.929
64.14	1284.227
64.16	1334.307
64.18	1363.291
64.2	1302.895
64.22	1370.156
64.24	1323.442
64.26	1356.801
64.28	1355.776
64.3	1401.431
64.32	1379.552
64.34	1296.469
64.36	1380.219
64.38	1374.91
64.4	1317.856
64.42	1383.592
64.44	1347.064
64.46	1377.173
64.48	1353.143
64.5	1404.847
64.52	1342.69
64.54	1438.494
64.56	1370.757
64.58	1441.653
64.6	1433.778
64.62	1407.111
64.64	1362.514
64.66	1425.989
64.68	1350.811
64.7	1353.534
64.72	1382.805
64.74	1431.163
64.76	1461.491
64.78	1323.22
64.8	1364.351
64.82	1397.952
64.84	1389.204
64.86	1453.125
64.88	1411.991
64.9	1363.382
64.92	1433.746
64.94	1421.737
64.96	1411.551
64.98	1463.542
65	1461.393
65.02	1462.394
65.04	1495.107
65.06	1458.416
65.08	1451.652
65.1	1494.866
65.12	1511.362
65.14	1515.635
65.16	1508.158
65.18	1562.522
65.2	1553.054
65.22	1631.34
65.24	1672.67
65.26	1612.946
65.28	1594.91
65.3	1617.977
65.32	1746.964
65.34	1697.032
65.36	1769.12
65.38	1728.388
65.4	1693.434
65.42	1698.159
65.44	1734.373
65.46	1758.613
65.48	1786.88
65.5	1768.853
65.52	1740.63
65.54	1743.646
65.56	1798.348
65.58	1669.385
65.6	1838.16
65.62	1682.019
65.64	1683.73
65.66	1722.665
65.68	1746.877
65.7	1730.922
65.72	1724.237
65.74	1752.516
65.76	1683.762
65.78	1634.505
65.8	1670.93
65.82	1578.282
65.84	1602.952
65.86	1569.806
65.88	1605.178
65.9	1554.376
65.92	1533.543
65.94	1568.473
65.96	1539.008
65.98	1502.51
66	1537.478
66.02	1525.886
66.04	1407.027
66.06	1453.59
66.08	1427.997
66.1	1519.199
66.12	1452.075
66.14	1416.514
66.16	1417.264
66.18	1313.216
66.2	1396.188
66.22	1411.811
66.24	1356.457
66.26	1384.378
66.28	1340.229
66.3	1366.979
66.32	1369.782
66.34	1335.494
66.36	1474.234
66.38	1325.345
66.4	1338.571
66.42	1407.342
66.44	1367.353
66.46	1355.82
66.48	1368.915
66.5	1369.6
66.52	1358.894
66.54	1348.877
66.56	1393.804
66.58	1441.954
66.6	1424.729
66.62	1435.605
66.64	1342.531
66.66	1376.772
66.68	1313.514
66.7	1330.232
66.72	1345.148
66.74	1355.422
66.76	1342.816
66.78	1371.336
66.8	1402.863
66.82	1297.991
66.84	1346.473
66.86	1293.427
66.88	1337.298
66.9	1362.873
66.92	1387.462
66.94	1353.154
66.96	1312.202
66.98	1275.54
67	1390.277
67.02	1305.284
67.04	1427.421
67.06	1367.394
67.08	1316.752
67.1	1315.222
67.12	1348.383
67.14	1324.484
67.16	1342.656
67.18	1325.668
67.2	1330.807
67.22	1294.631
67.24	1353.057
67.26	1391.89
67.28	1384.999
67.3	1300.125
67.32	1381.223
67.34	1358.324
67.36	1364.729
67.38	1329.722
67.4	1370.025
67.42	1369.846
67.44	1387.999
67.46	1384.817
67.48	1360.244
67.5	1375.804
67.52	1396.949
67.54	1337.487
67.56	1357.308
67.58	1374.181
67.6	1321.564
67.62	1436.495
67.64	1340.299
67.66	1391.822
67.68	1366.616
67.7	1363.971
67.72	1404.818
67.74	1366.215
67.76	1377.368
67.78	1425.661
67.8	1357.871
67.82	1358.614
67.84	1405.985
67.86	1390.613
67.88	1399.18
67.9	1354.736
67.92	1353.213
67.94	1316.907
67.96	1365.369
67.98	1385.449
68	1391.711
68.02	1445.522
68.04	1348.602
68.06	1402.098
68.08	1381.957
68.1	1321.259
68.12	1332.297
68.14	1384.921
68.16	1398.113
68.18	1397.154
68.2	1350.786
68.22	1391.927
68.24	1344.568
68.26	1334.995
68.28	1394.818
68.3	1411.339
68.32	1390.445
68.34	1369.847
68.36	1313.369
68.38	1472.755
68.4	1405.051
68.42	1446.343
68.44	1390.427
68.46	1409.032
68.48	1336.838
68.5	1410.557
68.52	1392.409
68.54	1396.34
68.56	1395.752
68.58	1378.278
68.6	1389.386
68.62	1472.737
68.64	1365.993
68.66	1401.813
68.68	1439.176
68.7	1443.672
68.72	1434.708
68.74	1500.988
68.76	1418.996
68.78	1371.46
68.8	1464.319
68.82	1421.184
68.84	1485.161
68.86	1431.338
68.88	1479.097
68.9	1421.308
68.92	1422.034
68.94	1516.27
68.96	1533.689
68.98	1457.124
69	1425.177
69.02	1419.639
69.04	1487.029
69.06	1557.734
69.08	1512.35
69.1	1530.545
69.12	1511.192
69.14	1558.146
69.16	1538.489
69.18	1492.643
69.2	1552.165
69.22	1534.014
69.24	1525.523
69.26	1562.315
69.28	1516.472
69.3	1531.505
69.32	1553.108
69.34	1566.266
69.36	1607.359
69.38	1665.365
69.4	1680.503
69.42	1721.771
69.44	1701.028
69.46	1597.858
69.48	1666.422
69.5	1659.775
69.52	1736.054
69.54	1731.834
69.56	1785.448
69.58	1824.116
69.6	1764.282
69.62	1787.094
69.64	1994.609
69.66	1955.515
69.68	2031.954
69.7	2079.398
69.72	1984.003
69.74	2131.64
69.76	2093.304
69.78	2182.933
69.8	2250.373
69.82	2459.297
69.84	2473.684
69.86	2830.9
69.88	2996.977
69.9	3373.656
69.92	3933.92
69.94	4590.368
69.96	5739.856
69.98	6999.377
70	8264.293
70.02	9539.148
70.04	9819.501
70.06	9321.176
70.08	8377.378
70.1	7229.733
70.12	6320.04
70.14	5836.275
70.16	5618.016
70.18	5796.928
70.2	6106.003
70.22	6303.997
70.24	6113.352
70.26	5983.644
70.28	5176.765
70.3	4494.796
70.32	3934.657
70.34	3441.534
70.36	3019.306
70.38	2863.885
70.4	2540.864
70.42	2440.735
70.44	2295.231
70.46	2139.081
70.48	2126.746
70.5	2109.249
70.52	2028.913
70.54	1936.037
70.56	1829.216
70.58	1919.566
70.6	1778.241
70.62	1895.373
70.64	1765.106
70.66	1805.431
70.68	1690.951
70.7	1729.327
70.72	1714.651
70.74	1744.923
70.76	1688.037
70.78	1624.116
70.8	1631.917
70.82	1601.958
70.84	1587.597
70.86	1622.089
70.88	1673.776
70.9	1592.12
70.92	1536.383
70.94	1501.73
70.96	1469.202
70.98	1502.357
71	1529.342
71.02	1453.587
71.04	1483.198
71.06	1444.615
71.08	1454.154
71.1	1479.344
71.12	1426.309
71.14	1463.995
71.16	1446.322
71.18	1448.935
71.2	1416.948
71.22	1415.901
71.24	1352.655
71.26	1331.986
71.28	1414.902
71.3	1363.963
71.32	1354.569
71.34	1319.687
71.36	1413.829
71.38	1385.135
71.4	1365.338
71.42	1305.918
71.44	1368.763
71.46	1290.483
71.48	1344.46
71.5	1362.73
71.52	1321.753
71.54	1320.999
71.56	1294.99
71.58	1367.331
71.6	1297.388
71.62	1378.741
71.64	1344.21
71.66	1281.26
71.68	1279.378
71.7	1338.214
71.72	1308.812
71.74	1263.327
71.76	1316.503
71.78	1294.231
71.8	1236.679
71.82	1329.365
71.84	1275.69
71.86	1300.34
71.88	1325.33
71.9	1345.993
71.92	1357.332
71.94	1353.135
71.96	1310.073
71.98	1339.528
72	1286.961
72.02	1295.065
72.04	1287.532
72.06	1313.159
72.08	1189.358
72.1	1271.053
72.12	1294.745
72.14	1278.707
72.16	1292.244
72.18	1266.536
72.2	1274.539
72.22	1265.974
72.24	1265.878
72.26	1242.377
72.28	1219.446
72.3	1291.14
72.32	1246.471
72.34	1257.928
72.36	1274.612
72.38	1279.947
72.4	1256.755
72.42	1257.615
72.44	1284.596
72.46	1287.27
72.48	1250.088
72.5	1305.796
72.52	1245.38
72.54	1250.864
72.56	1202.771
72.58	1301.499
72.6	1250.111
72.62	1198.66
72.64	1251.426
72.66	1225.565
72.68	1259.812
72.7	1273.286
72.72	1317.694
72.74	1241.17
72.76	1140.799
72.78	1278.298
72.8	1216.52
72.82	1299.985
72.84	1246.243
72.86	1230.461
72.88	1333.176
72.9	1249.152
72.92	1258.518
72.94	1202.998
72.96	1257.645
72.98	1144.02
73	1162.599
73.02	1260.904
73.04	1138.247
73.06	1241.978
73.08	1175.567
73.1	1247.887
73.12	1237.778
73.14	1268.239
73.16	1219.116
73.18	1246.231
73.2	1238.417
73.22	1243.309
73.24	1210.252
73.26	1236.018
73.28	1185.505
73.3	1274.211
73.32	1198.136
73.34	1248.52
73.36	1202.972
73.38	1229.065
73.4	1237.075
73.42	1219.997
73.44	1222.312
73.46	1310.563
73.48	1257.438
73.5	1156.952
73.52	1201.584
73.54	1268.729
73.56	1206.331
73.58	1208.172
73.6	1277.272
73.62	1207.043
73.64	1207.839
73.66	1245.318
73.68	1300.423
73.7	1222.279
73.72	1198.948
73.74	1223.983
73.76	1241.25
73.78	1196.059
73.8	1210.882
73.82	1212.201
73.84	1253.36
73.86	1168.398
73.88	1232.043
73.9	1255.297
73.92	1186.089
73.94	1141.833
73.96	1241.002
73.98	1193.621
74	1215.422
74.02	1275.711
74.04	1199.467
74.06	1201.194
74.08	1250.298
74.1	1239.618
74.12	1206.373
74.14	1185.804
74.16	1236.652
74.18	1249.631
74.2	1200.312
74.22	1212.796
74.24	1220.269
74.26	1217.917
74.28	1220.783
74.3	1218.893
74.32	1161.366
74.34	1214.509
74.36	1209.055
74.38	1150.468
74.4	1204.933
74.42	1179.513
74.44	1197.208
74.46	1246.657
74.48	1161.469
74.5	1211.986
74.52	1248.928
74.54	1233.727
74.56	1261.681
74.58	1249.802
74.6	1233.193
74.62	1235.013
74.64	1171.763
74.66	1138.162
74.68	1196.535
74.7	1196.445
74.72	1196.375
74.74	1224.785
74.76	1187.395
74.78	1198.925
74.8	1215.399
74.82	1258.939
74.84	1156.532
74.86	1154.398
74.88	1232.718
74.9	1187.079
74.92	1208.121
74.94	1181.689
74.96	1148.892
74.98	1178.274
75	1263.799
75.02	1243.018
75.04	1246.981
75.06	1182.547
75.08	1168.09
75.1	1218.757
75.12	1179.518
75.14	1157.471
75.16	1200.374
75.18	1157.839
75.2	1113.889
75.22	1166.675
75.24	1210.758
75.26	1160.49
75.28	1215.707
75.3	1242.902
75.32	1175.596
75.34	1210.467
75.36	1165.056
75.38	1191.777
75.4	1204.184
75.42	1153.175
75.44	1183.167
75.46	1254.319
75.48	1158.344
75.5	1260.851
75.52	1143.357
75.54	1210.771
75.56	1257.856
75.58	1231.224
75.6	1250.445
75.62	1196.049
75.64	1161.447
75.66	1201.911
75.68	1170.878
75.7	1117.145
75.72	1188.466
75.74	1162.975
75.76	1129.79
75.78	1165.368
75.8	1184.707
75.82	1175.111
75.84	1176.117
75.86	1173.781
75.88	1138.636
75.9	1165.611
75.92	1236.028
75.94	1176.731
75.96	1193.835
75.98	1180.495
76	1200.722
76.02	1173.545
76.04	1098.804
76.06	1237.07
76.08	1141.441
76.1	1180.085
76.12	1221.54
76.14	1195.388
76.16	1184.9
76.18	1146.982
76.2	1222.913
76.22	1217.359
76.24	1125.073
76.26	1166.698
76.28	1178.228
76.3	1212.989
76.32	1185.047
76.34	1151.375
76.36	1179.628
76.38	1181.524
76.4	1214.831
76.42	1181.733
76.44	1179.371
76.46	1239.453
76.48	1209.416
76.5	1152.659
76.52	1203.215
76.54	1274.429
76.56	1172.26
76.58	1192.878
76.6	1193.152
76.62	1192.078
76.64	1178.334
76.66	1172.498
76.68	1246.068
76.7	1231.622
76.72	1255.507
76.74	1259.717
76.76	1198.28
76.78	1218.387
76.8	1221.324
76.82	1274.838
76.84	1235.95
76.86	1182.53
76.88	1195.153
76.9	1222.304
76.92	1193.718
76.94	1175.107
76.96	1221.653
76.98	1242.554
77	1156.769
77.02	1155.975
77.04	1199.614
77.06	1238.056
77.08	1232.116
77.1	1167.24
77.12	1190.87
77.14	1226.108
77.16	1221.998
77.18	1177
77.2	1194.847
77.22	1174.352
77.24	1170.028
77.26	1242.034
77.28	1248.561
77.3	1223.293
77.32	1222.685
77.34	1169.766
77.36	1191.536
77.38	1174.946
77.4	1197.204
77.42	1164.131
77.44	1198.27
77.46	1181.219
77.48	1212.589
77.5	1213.796
77.52	1182.08
77.54	1215.739
77.56	1223.951
77.58	1258.633
77.6	1205.962
77.62	1182.364
77.64	1224.141
77.66	1205.393
77.68	1235.486
77.7	1232.614
77.72	1200.917
77.74	1272.381
77.76	1211.708
77.78	1254.896
77.8	1270.287
77.82	1307.571
77.84	1256.465
77.86	1244.259
77.88	1247.585
77.9	1235.68
77.92	1278.751
77.94	1294.538
77.96	1305.653
77.98	1350.957
78	1283.83
78.02	1328.561
78.04	1276.712
78.06	1328.532
78.08	1348.635
78.1	1405.731
78.12	1352.708
78.14	1339.643
78.16	1374.716
78.18	1476.55
78.2	1465.646
78.22	1399.317
78.24	1439.025
78.26	1368.593
78.28	1427.941
78.3	1525.244
78.32	1523.214
78.34	1598.343
78.36	1496.911
78.38	1582.3
78.4	1516.213
78.42	1583.061
78.44	1602.724
78.46	1679.508
78.48	1660.71
78.5	1709.275
78.52	1741.3
78.54	1731.198
78.56	1719.351
78.58	1768.507
78.6	1778.99
78.62	1768.687
78.64	1773.901
78.66	1869.4
78.68	1864.982
78.7	1823.244
78.72	1882.78
78.74	1822.555
78.76	1881.073
78.78	1978.076
78.8	1872.002
78.82	1877.859
78.84	1869.331
78.86	1887.931
78.88	1898.454
78.9	1928.728
78.92	1874.846
78.94	1820.267
78.96	1935.731
78.98	1818.556
79	1910.362
79.02	1904.052
79.04	1884.898
79.06	1854.502
79.08	1782.281
79.1	1813.725
79.12	1788.322
79.14	1843.472
79.16	1766.586
79.18	1689.043
79.2	1778.972
79.22	1709.662
79.24	1598.442
79.26	1665.683
79.28	1629.091
79.3	1622.568
79.32	1583.448
79.34	1671.888
79.36	1589.504
79.38	1527.527
79.4	1552.251
79.42	1571.011
79.44	1422.052
79.46	1484.514
79.48	1487.789
79.5	1412.138
79.52	1411.323
79.54	1387.011
79.56	1354.918
79.58	1409.312
79.6	1374.727
79.62	1392.034
79.64	1297.196
79.66	1328.519
79.68	1334.396
79.7	1348.666
79.72	1272.956
79.74	1253.759
79.76	1325.63
79.78	1334.419
79.8	1321.143
79.82	1263.539
79.84	1312.556
79.86	1262.363
79.88	1294.892
79.9	1242.255
79.92	1263.701
79.94	1288.132
79.96	1279.947
79.98	1243.371
80	1205.561
80.02	1232.355
80.04	1181.236
80.06	1192.105
80.08	1244.921
80.1	1154.97
80.12	1181.479
80.14	1216.7
80.16	1205.742
80.18	1177.534
80.2	1213.818
80.22	1229.717
80.24	1157.606
80.26	1139.49
80.28	1222.967
80.3	1187.915
80.32	1189.424
80.34	1150.226
80.36	1117.301
80.38	1194.075
80.4	1121.359
80.42	1151.753
80.44	1162.5
80.46	1167.936
80.48	1120.744
80.5	1142.216
80.52	1145.062
80.54	1170.535
80.56	1088.341
80.58	1115.27
80.6	1140.807
80.62	1138.491
80.64	1164.574
80.66	1176.671
80.68	1141.089
80.7	1155.93
80.72	1155.072
80.74	1117.565
80.76	1168.028
80.78	1106.898
80.8	1209.538
80.82	1130.3
80.84	1140.255
80.86	1116.367
80.88	1161.448
80.9	1184.369
80.92	1166.891
80.94	1172.066
80.96	1098.341
80.98	1196.687
81	1136.22
81.02	1126.843
81.04	1183.833
81.06	1130.776
81.08	1167.663
81.1	1163.825
81.12	1159.793
81.14	1116.944
81.16	1132.036
81.18	1097.709
81.2	1063.524
81.22	1068.169
81.24	1161.732
81.26	1180.769
81.28	1206.508
81.3	1145.919
81.32	1148.252
81.34	1166.469
81.36	1143.696
81.38	1133.517
81.4	1151.477
81.42	1101.287
81.44	1100.098
81.46	1105.88
81.48	1133.583
81.5	1186.529
81.52	1124.731
81.54	1168.232
81.56	1117.435
81.58	1079.994
81.6	1162.072
81.62	1143.182
81.64	1115.473
81.66	1131.308
81.68	1126.803
81.7	1143.243
81.72	1178.664
81.74	1169.993
81.76	1177.422
81.78	1166.383
81.8	1101.709
81.82	1138.18
81.84	1152.979
81.86	1167.568
81.88	1117.83
81.9	1126.863
81.92	1164.45
81.94	1181.921
81.96	1099.936
81.98	1061.351
82	1172.639
82.02	1199.979
82.04	1121.693
82.06	1148.362
82.08	1097.988
82.1	1156.42
82.12	1114.119
82.14	1177.564
82.16	1168.514
82.18	1217.558
82.2	1200.952
82.22	1165.837
82.24	1200.434
82.26	1188.276
82.28	1168.489
82.3	1132.784
82.32	1193.541
82.34	1262.41
82.36	1237.815
82.38	1199.44
82.4	1166.102
82.42	1177.248
82.44	1277.474
82.46	1153.351
82.48	1237.068
82.5	1230.485
82.52	1194.331
82.54	1248.33
82.56	1178.062
82.58	1140.069
82.6	1257.983
82.62	1202.675
82.64	1229.157
82.66	1290.613
82.68	1274.446
82.7	1230.304
82.72	1310.155
82.74	1298.398
82.76	1302.61
82.78	1412.775
82.8	1423.122
82.82	1498.49
82.84	1536.187
82.86	1580.379
82.88	1708.292
82.9	1830.625
82.92	2040.487
82.94	2278.036
82.96	2337.026
82.98	2583.555
83	2623.499
83.02	2584.401
83.04	2583.54
83.06	2429.367
83.08	2361.045
83.1	2094.118
83.12	2071.58
83.14	2006.877
83.16	1945.137
83.18	1958.239
83.2	1959.964
83.22	2015.972
83.24	2025.415
83.26	2059.442
83.28	2033.232
83.3	1904.578
83.32	1821.224
83.34	1774.45
83.36	1626.266
83.38	1537.678
83.4	1485.221
83.42	1433.577
83.44	1400.564
83.46	1293.567
83.48	1307.776
83.5	1350.115
83.52	1263.334
83.54	1264.217
83.56	1252.647
83.58	1219.017
83.6	1186.738
83.62	1199.453
83.64	1203.752
83.66	1165.585
83.68	1145.246
83.7	1127.589
83.72	1218.047
83.74	1173.615
83.76	1194.646
83.78	1130.025
83.8	1156.877
83.82	1148.159
83.84	1113.909
83.86	1180.391
83.88	1147.672
83.9	1166.658
83.92	1092.504
83.94	1138.394
83.96	1125.785
83.98	1174.727
84	1087.965
84.02	1053.859
84.04	1110.495
84.06	1091.17
84.08	1133.782
84.1	1073.629
84.12	1019.109
84.14	1163.298
84.16	1113.253
84.18	1059.096
84.2	1060.007
84.22	1087.71
84.24	1054.528
84.26	1049.201
84.28	1124.252
84.3	1174.219
84.32	1057.722
84.34	1060.768
84.36	1106.5
84.38	1046.833
84.4	1045.553
84.42	1017.316
84.44	1071.169
84.46	1083.464
84.48	1033.623
84.5	1060.677
84.52	1197.528
84.54	1026.168
84.56	1062.747
84.58	1039.556
84.6	1095.482
84.62	1057.699
84.64	1079.719
84.66	1066.421
84.68	1105.419
84.7	1095.441
84.72	1096.04
84.74	1097.229
84.76	1053.138
84.78	1009.388
84.8	1107.5
84.82	1072.436
84.84	1037.567
84.86	1065.626
84.88	1075.226
84.9	1106.115
84.92	1081.339
84.94	1062.152
84.96	1137.292
84.98	1067.298
85	1021.336
85.02	1062.437
85.04	1057.068
85.06	1062.836
85.08	1033.706
85.1	989.1294
85.12	1035.26
85.14	1114.52
85.16	996.5909
85.18	1035.22
85.2	1069.68
85.22	1040.815
85.24	1015.397
85.26	1011.709
85.28	1040.009
85.3	1025.044
85.32	1073.869
85.34	1050.059
85.36	1007.482
85.38	1052.627
85.4	1058.095
85.42	1041.918
85.44	1081.634
85.46	1039.693
85.48	1046.047
85.5	1063.523
85.52	1045.061
85.54	1057.233
85.56	1006.075
85.58	989.3344
85.6	1065.448
85.62	1087.677
85.64	1029.998
85.66	1085.566
85.68	1082.291
85.7	1040.244
85.72	1042.359
85.74	1043.9
85.76	1042.227
85.78	1044.82
85.8	1018.682
85.82	1094.537
85.84	1059.116
85.86	1071.366
85.88	1008.704
85.9	1034.097
85.92	1045.499
85.94	1039.429
85.96	1002.36
85.98	1031.098
86	1085.372
86.02	1022.808
86.04	1048.641
86.06	1019.272
86.08	1031.9
86.1	1046.219
86.12	1008.439
86.14	1006.839
86.16	1010.852
86.18	1061.81
86.2	1078.142
86.22	1000.163
86.24	1009.635
86.26	1050.646
86.28	1016.044
86.3	1031.541
86.32	1020.344
86.34	1051.533
86.36	916.0994
86.38	1048.246
86.4	1049.129
86.42	983.9939
86.44	990.89
86.46	998.0774
86.48	980.6148
86.5	1069.972
86.52	983.8029
86.54	1041.264
86.56	1028.383
86.58	1052.168
86.6	968.1518
86.62	1042.591
86.64	1026.178
86.66	1016.962
86.68	1008.885
86.7	1041.147
86.72	973.9454
86.74	1064.418
86.76	994.5393
86.78	1061.358
86.8	999.4186
86.82	1019.532
86.84	998.4153
86.86	1004.66
86.88	1052.045
86.9	1007.112
86.92	1094.735
86.94	984.2406
86.96	1033.702
86.98	1002.618
87	1019.061
87.02	1015.547
87.04	1009.913
87.06	1039.251
87.08	998.9398
87.1	1007.696
87.12	1054.138
87.14	982.0164
87.16	1006.099
87.18	1013.919
87.2	1063.672
87.22	1089.297
87.24	1028.634
87.26	977.1133
87.28	955.2969
87.3	1078.549
87.32	988.442
87.34	1040.912
87.36	1055.57
87.38	991.711
87.4	967.6309
87.42	1032.056
87.44	979.0372
87.46	987.9289
87.48	984.7848
87.5	1033.922
87.52	1019.327
87.54	1028.749
87.56	970.6656
87.58	1034.007
87.6	1041.014
87.62	997.9706
87.64	979.1115
87.66	1032.12
87.68	979.0777
87.7	981.7756
87.72	1039.526
87.74	1012.569
87.76	1046.429
87.78	1002.811
87.8	1032.362
87.82	1035.902
87.84	983.1177
87.86	971.3853
87.88	1033.409
87.9	997.4182
87.92	1049.87
87.94	985.7759
87.96	1035.334
87.98	1013.842
88	993.2932
88.02	989.2432
88.04	1087.827
88.06	964.2762
88.08	1033.417
88.1	997.8026
88.12	1014.86
88.14	1021.015
88.16	1014.114
88.18	1004.034
88.2	1000.932
88.22	967.6208
88.24	919.4605
88.26	996.4671
88.28	1003.164
88.3	973.1079
88.32	999.1476
88.34	1072.929
88.36	1024.063
88.38	987.3218
88.4	948.0547
88.42	989.6114
88.44	955.596
88.46	1022.423
88.48	1056.905
88.5	1059.072
88.52	976.9429
88.54	997.3807
88.56	1028.553
88.58	1003.488
88.6	972.2601
88.62	1059.913
88.64	997.4172
88.66	1038.145
88.68	974.8204
88.7	997.5538
88.72	1029.33
88.74	1033.244
88.76	1047.741
88.78	1012.401
88.8	1025.738
88.82	1015.985
88.84	1042.66
88.86	972.6166
88.88	1014.389
88.9	1002.926
88.92	1005.691
88.94	971.2589
88.96	1014.641
88.98	994.8239
89	1002.272
89.02	1067.585
89.04	981.5894
89.06	1017.933
89.08	1004.119
89.1	972.1055
89.12	1011.752
89.14	1008.335
89.16	936.4247
89.18	1021.8
89.2	955.2821
89.22	975.9321
89.24	980.9673
89.26	1046.133
89.28	1026.484
89.3	998.798
89.32	1023.144
89.34	959.3141
89.36	997.1244
89.38	1033.786
89.4	1038.892
89.42	974.1599
89.44	989.6871
89.46	1025.492
89.48	1045.628
89.5	1057.117
89.52	895.0987
89.54	1063.392
89.56	998.558
89.58	940.7166
89.6	1013.147
89.62	993.6911
89.64	980.8865
89.66	990.5674
89.68	966.5442
89.7	1001.81
89.72	1017.045
89.74	982.4266
89.76	1009.07
89.78	986.8488
89.8	1026.421
89.82	963.2169
89.84	973.247
89.86	992.2599
89.88	1012.083
89.9	982.9919
89.92	1004.258
89.94	951.0526
89.96	940.6337
89.98	999.7111
90	982.2763
90.02	1002.914
90.04	1003.829
90.06	965.1374
90.08	1020.737
90.1	1047.9
90.12	1004.037
90.14	986.3792
90.16	1027.307
90.18	1014.5
90.2	1043.372
90.22	1000.982
90.24	960.793
90.26	974.9778
90.28	937.0156
90.3	1020.211
90.32	1079.766
90.34	956.6744
90.36	944.6736
90.38	999.7073
90.4	1005.505
90.42	1016.455
90.44	1004.84
90.46	988.3572
90.48	1009.825
90.5	957.5233
90.52	960.6926
90.54	988.8287
90.56	976.3243
90.58	966.3761
90.6	1009.205
90.62	981.6345
90.64	1027.392
90.66	1009.082
90.68	959.1495
90.7	1025.679
90.72	1049.888
90.74	1060.071
90.76	1005.288
90.78	1027.515
90.8	981.4336
90.82	982.7881
90.84	964.7144
90.86	1053.69
90.88	1068.067
90.9	1025.303
90.92	995.54
90.94	1009.633
90.96	974.1234
90.98	1000.538
91	1047.622
91.02	1042.724
91.04	996.6756
91.06	1014.696
91.08	988.9672
91.1	1029.304
91.12	1019.221
91.14	1008.03
91.16	1025.519
91.18	997.1522
91.2	1059.973
91.22	970.3406
91.24	930.641
91.26	1022.808
91.28	1019.44
91.3	1026.632
91.32	1010.818
91.34	988.826
91.36	1008.967
91.38	1038.74
91.4	1013.913
91.42	1006.087
91.44	951.984
91.46	1010.184
91.48	980.9548
91.5	1032.938
91.52	977.3321
91.54	1002.399
91.56	1038.018
91.58	1017.465
91.6	1086.231
91.62	996.6405
91.64	980.1152
91.66	1017.024
91.68	969.9932
91.7	984.8275
91.72	1008.203
91.74	1026.122
91.76	1043.526
91.78	1043.188
91.8	1051.198
91.82	1047.708
91.84	1025.182
91.86	1036.344
91.88	1033.498
91.9	1055.252
91.92	1022.678
91.94	1058.62
91.96	1007.874
91.98	1052.617
92	1014.342
92.02	1019.836
92.04	993.3146
92.06	1042.223
92.08	999.1117
92.1	949.5123
92.12	1005.654
92.14	980.5485
92.16	1091.77
92.18	990.8655
92.2	983.0499
92.22	1026.201
92.24	990.5209
92.26	1020.651
92.28	1040.826
92.3	978.6434
92.32	1033.9
92.34	979.1138
92.36	1039.813
92.38	1076.6
92.4	1054.335
92.42	1004.973
92.44	970.2628
92.46	991.7935
92.48	962.3165
92.5	1017.621
92.52	964.5352
92.54	1006.689
92.56	998.6162
92.58	1044.587
92.6	983.8922
92.62	941.3386
92.64	1047.234
92.66	1059.365
92.68	952.663
92.7	1037.325
92.72	955.2718
92.74	1000.327
92.76	998.0108
92.78	972.3265
92.8	985.4288
92.82	1037.493
92.84	1017.383
92.86	978.7838
92.88	1053.849
92.9	1046.05
92.92	1006.079
92.94	1016.923
92.96	1015.964
92.98	989.196
93	1029.947
93.02	1062.211
93.04	963.3035
93.06	1027.558
93.08	989.0984
93.1	1024.792
93.12	1052.116
93.14	960.9672
93.16	1045.146
93.18	1068.174
93.2	983.2859
93.22	992.8929
93.24	1070.668
93.26	998.494
93.28	1049.612
93.3	1015.598
93.32	982.6802
93.34	1009.131
93.36	1040.689
93.38	993.2469
93.4	1037.134
93.42	1039.55
93.44	1013.135
93.46	993.0397
93.48	978.4393
93.5	1074.075
93.52	1042.771
93.54	998.0129
93.56	992.1387
93.58	995.3112
93.6	961.29
93.62	1020.178
93.64	1060.258
93.66	1049.706
93.68	985.4769
93.7	1069.232
93.72	1025.67
93.74	1002.725
93.76	1006.496
93.78	1012.485
93.8	1047.843
93.82	976.3225
93.84	987.97
93.86	978.0974
93.88	1055.083
93.9	1076.861
93.92	1039.424
93.94	1067.54
93.96	1030.252
93.98	1030.927
94	958.8489
94.02	1052.013
94.04	1025.147
94.06	974.0204
94.08	1011.146
94.1	1064.541
94.12	1040.392
94.14	1030.156
94.16	1013.344
94.18	1053.336
94.2	993.7654
94.22	1015.605
94.24	1062.747
94.26	1077.789
94.28	1020.583
94.3	1111.916
94.32	1083.271
94.34	991.3287
94.36	1030.704
94.38	978.347
94.4	1010.91
94.42	1051.935
94.44	1050.572
94.46	1085.692
94.48	1087.142
94.5	1045.033
94.52	1030.658
94.54	1086.141
94.56	1070.491
94.58	1043.986
94.6	1040.052
94.62	1087.541
94.64	1063.029
94.66	1092.756
94.68	1074.954
94.7	1127.243
94.72	1072.835
94.74	1114.667
94.76	1073.973
94.78	1107.357
94.8	1077.323
94.82	1136.346
94.84	1054.351
94.86	1049.772
94.88	1050.182
94.9	1086.244
94.92	1103.137
94.94	1150.068
94.96	1079.073
94.98	1073.01
95	1150.409
95.02	1135.212
95.04	1116.413
95.06	1110.069
95.08	1153.811
95.1	1138.154
95.12	1175.364
95.14	1156.552
95.16	1210.456
95.18	1155.857
95.2	1218.161
95.22	1181.737
95.24	1146.402
95.26	1185.396
95.28	1191.816
95.3	1197.738
95.32	1271.705
95.34	1266.632
95.36	1339.97
95.38	1321.652
95.4	1334.369
95.42	1391.826
95.44	1525.965
95.46	1564.388
95.48	1620.293
95.5	1716.641
95.52	1731.698
95.54	1812.222
95.56	1923.514
95.58	2076.468
95.6	2070.579
95.62	2073.384
95.64	2116.328
95.66	2102.079
95.68	2064.692
95.7	2016.176
95.72	1899.592
95.74	1885.405
95.76	1827.568
95.78	1850.397
95.8	1811.267
95.82	1690.475
95.84	1631.574
95.86	1729.17
95.88	1767.913
95.9	1794.722
95.92	1731.099
95.94	1731.574
95.96	1637.391
95.98	1665.658
96	1645.678
96.02	1591.261
96.04	1566.102
96.06	1488.539
96.08	1472.021
96.1	1419.47
96.12	1356.09
96.14	1373.026
96.16	1341.356
96.18	1221.612
96.2	1243.798
96.22	1216.782
96.24	1199.84
96.26	1156.462
96.28	1244.807
96.3	1211.69
96.32	1161.136
96.34	1257.526
96.36	1129.135
96.38	1197.17
96.4	1167.616
96.42	1146.615
96.44	1114.823
96.46	1177.708
96.48	1130.979
96.5	1146.582
96.52	1072.208
96.54	1101.846
96.56	1080.186
96.58	1069.212
96.6	1111.1
96.62	1065.536
96.64	1086.562
96.66	1152.941
96.68	1100.177
96.7	1116.914
96.72	1014.894
96.74	1035.682
96.76	1099.635
96.78	1094.048
96.8	1059.168
96.82	1035.004
96.84	1058.75
96.86	998.9197
96.88	1079.959
96.9	1069.526
96.92	1023.934
96.94	996.018
96.96	1034.219
96.98	1021.823
97	1034.435
97.02	1036.701
97.04	1061.868
97.06	1076.368
97.08	1044.462
97.1	1017.375
97.12	986.7709
97.14	1063.298
97.16	1075.507
97.18	1024.892
97.2	1055.524
97.22	1040.785
97.24	1048.39
97.26	1014.708
97.28	1052.974
97.3	1089.815
97.32	1020.945
97.34	981.9353
97.36	1026.95
97.38	1037.203
97.4	1018.228
97.42	1025.357
97.44	1006.935
97.46	998.8836
97.48	975.2349
97.5	1036.069
97.52	1007.859
97.54	976.5847
97.56	986.7921
97.58	1021.088
97.6	1029.239
97.62	1030.878
97.64	1056.25
97.66	1003.187
97.68	1069.253
97.7	998.6926
97.72	1009.454
97.74	1051.593
97.76	1013.079
97.78	986.3716
97.8	1051.061
97.82	991.7791
97.84	995.5596
97.86	951.9557
97.88	1069.68
97.9	1037.374
97.92	1050.338
97.94	1018.444
97.96	1027.843
97.98	1031.411
98	1052.106
98.02	965.8397
98.04	976.9964
98.06	994.6605
98.08	1026.505
98.1	926.3971
98.12	987.7974
98.14	1005.199
98.16	974.2402
98.18	960.5847
98.2	969.2845
98.22	1002.552
98.24	1015.355
98.26	990.5593
98.28	1044.94
98.3	1004.784
98.32	935.3038
98.34	1015.01
98.36	1025.286
98.38	967.6399
98.4	1014.156
98.42	951.2435
98.44	997.8215
98.46	1002.914
98.48	995.7488
98.5	1066.844
98.52	980.2598
98.54	1005.596
98.56	986.1796
98.58	963.9033
98.6	976.3022
98.62	951.9379
98.64	1032.849
98.66	1060.405
98.68	999.5891
98.7	1027.254
98.72	928.7077
98.74	975.1994
98.76	1016.521
98.78	995.4338
98.8	1022.134
98.82	947.7994
98.84	1085.365
98.86	1032.318
98.88	1031.037
98.9	1005.669
98.92	969.5718
98.94	1037.399
98.96	1000.374
98.98	961.6378
99	1013.748
99.02	973.4512
99.04	962.193
99.06	947.0931
99.08	971.7351
99.1	947.019
99.12	983.15
99.14	930.107
99.16	984.0156
99.18	998.4052
99.2	993.3624
99.22	968.3138
99.24	979.3192
99.26	1060.717
99.28	977.0986
99.3	1010.321
99.32	1040.112
99.34	943.5665
99.36	1013.544
99.38	956.6319
99.4	919.8481
99.42	979.8408
99.44	988.1177
99.46	1001.643
99.48	991.1589
99.5	994.153
99.52	959.6852
99.54	931.0414
99.56	908.0068
99.58	1011.528
99.6	1006.506
99.62	973.2674
99.64	930.7283
99.66	952.0761
99.68	973.0412
99.7	1007.238
99.72	957.0066
99.74	974.008
99.76	914.107
99.78	936.4326
99.8	1002.624
99.82	1019.53
99.84	962.4489
99.86	1013.695
99.88	1010.804
99.9	966.8488
99.92	1022.653
99.94	984.6402
99.96	1005.875
99.98	995.2606
100	942.4193
