TiNbZrCu_9	
2θ, °	Intensity, counts
30	4314.946
30.02	4368
30.04	4329.99
30.06	4326.726
30.08	4288.736
30.1	4296.217
30.12	4371.764
30.14	4349.49
30.16	4273.735
30.18	4186.798
30.2	4273.476
30.22	4342.636
30.24	4249.685
30.26	4255.509
30.28	4222.138
30.3	4268.316
30.32	4335.506
30.34	4265.306
30.36	4356.788
30.38	4224.968
30.4	4160.553
30.42	4205.363
30.44	4215.555
30.46	4275.505
30.48	4253.388
30.5	4082.737
30.52	4199.886
30.54	4182.088
30.56	4302.421
30.58	4115.546
30.6	4142.253
30.62	4152.178
30.64	4126.575
30.66	4237.33
30.68	4160.131
30.7	4224.296
30.72	4229.982
30.74	4190.498
30.76	4291.275
30.78	4215.083
30.8	4220.081
30.82	4128.895
30.84	4093.962
30.86	4101.436
30.88	4042.287
30.9	4087.702
30.92	4127.851
30.94	4122.464
30.96	4156.234
30.98	4210.489
31	4279.955
31.02	4116.149
31.04	4118.531
31.06	4118.206
31.08	4253.438
31.1	4237.869
31.12	4202.318
31.14	4123.001
31.16	4297.112
31.18	4199.688
31.2	4167.276
31.22	4271.723
31.24	4270.904
31.26	4260.167
31.28	4163.889
31.3	4236.501
31.32	4223.568
31.34	4216.417
31.36	4291.197
31.38	4266.853
31.4	4151.259
31.42	4250.039
31.44	4206.976
31.46	4114.978
31.48	4223.833
31.5	4231.665
31.52	4220.711
31.54	4138.409
31.56	4061.825
31.58	4056.257
31.6	3985.531
31.62	4020.169
31.64	4003.433
31.66	4078.013
31.68	3958.025
31.7	3965.568
31.72	4024.955
31.74	3807.672
31.76	3906.485
31.78	3740.457
31.8	3783.628
31.82	3901.97
31.84	3957.099
31.86	3877.143
31.88	3765.641
31.9	3803.878
31.92	3847.604
31.94	3736.63
31.96	3748.1
31.98	3816.565
32	3832.317
32.02	3792.238
32.04	3833.353
32.06	3698.421
32.08	3841.917
32.1	3732.999
32.12	3867.632
32.14	3828.169
32.16	3717.026
32.18	3702.405
32.2	3713.411
32.22	3804.501
32.24	3684.98
32.26	3749.941
32.28	3648.906
32.3	3756.055
32.32	3801.299
32.34	3802.029
32.36	3621.672
32.38	3661.352
32.4	3681.518
32.42	3725.293
32.44	3655.2
32.46	3585.496
32.48	3573.058
32.5	3589.297
32.52	3579.49
32.54	3606.717
32.56	3598.906
32.58	3554.93
32.6	3491.794
32.62	3644.197
32.64	3695.164
32.66	3478.041
32.68	3602.686
32.7	3463.843
32.72	3505.438
32.74	3529.062
32.76	3581.085
32.78	3562.121
32.8	3597.61
32.82	3613.851
32.84	3612.251
32.86	3465.979
32.88	3501.901
32.9	3537.442
32.92	3550.287
32.94	3509.922
32.96	3572.526
32.98	3519.321
33	3691.267
33.02	3510.263
33.04	3485.627
33.06	3443.911
33.08	3419.895
33.1	3496.461
33.12	3416.749
33.14	3379.131
33.16	3412.26
33.18	3458.898
33.2	3444.621
33.22	3491.698
33.24	3365.357
33.26	3398.99
33.28	3452.515
33.3	3434.021
33.32	3454.636
33.34	3402.659
33.36	3456.756
33.38	3462.418
33.4	3402.077
33.42	3254.968
33.44	3459.064
33.46	3490.167
33.48	3282.88
33.5	3358.072
33.52	3363.557
33.54	3481.401
33.56	3371.709
33.58	3506.278
33.6	3363.376
33.62	3399.786
33.64	3342.668
33.66	3351.314
33.68	3331.776
33.7	3444.081
33.72	3286.193
33.74	3291.899
33.76	3272.128
33.78	3237.373
33.8	3212.083
33.82	3351.958
33.84	3358.593
33.86	3237.336
33.88	3262.671
33.9	3241.842
33.92	3255.517
33.94	3334.125
33.96	3273.018
33.98	3238.605
34	3289.57
34.02	3302.178
34.04	3226.251
34.06	3287.499
34.08	3114.456
34.1	3183.718
34.12	3225.113
34.14	3219.143
34.16	3267.271
34.18	3178.673
34.2	3135.269
34.22	3160.475
34.24	3201.359
34.26	3134.549
34.28	3188.774
34.3	3209.245
34.32	3194.275
34.34	3148.001
34.36	3093.513
34.38	3221.63
34.4	3187.864
34.42	3011.731
34.44	3184.931
34.46	3133.748
34.48	3115.676
34.5	3095.325
34.52	3091.025
34.54	3132.09
34.56	3074.171
34.58	3118.65
34.6	3070.568
34.62	3121.649
34.64	3186.549
34.66	3180.133
34.68	3112.028
34.7	3114.132
34.72	3120.334
34.74	3262.608
34.76	3144.578
34.78	3252.531
34.8	3136.533
34.82	3115.628
34.84	3110.226
34.86	3072.337
34.88	3097.433
34.9	3039.615
34.92	3086.404
34.94	3116.222
34.96	3064.061
34.98	3003.188
35	3031.482
35.02	3036.117
35.04	3033.604
35.06	3064.99
35.08	3012.145
35.1	2951.591
35.12	3032.484
35.14	2996.922
35.16	2978.315
35.18	3018.514
35.2	2961.022
35.22	2989.907
35.24	3019.533
35.26	2913.344
35.28	2911.898
35.3	2967.317
35.32	3000.81
35.34	3042.386
35.36	2955.488
35.38	2924.152
35.4	2940.274
35.42	2897.653
35.44	2930.675
35.46	2864.056
35.48	2897.443
35.5	2965.456
35.52	2956.778
35.54	2978.279
35.56	2925.739
35.58	2899.817
35.6	2986.734
35.62	2944.04
35.64	2901.363
35.66	2892.983
35.68	2868.12
35.7	2940.016
35.72	2872.689
35.74	2986.324
35.76	2951.686
35.78	2954.819
35.8	2875.351
35.82	2954.763
35.84	2862.677
35.86	2888.518
35.88	3015.696
35.9	2955.392
35.92	2897.471
35.94	2861.42
35.96	2845.12
35.98	2819.573
36	2879.812
36.02	2882.648
36.04	2926.291
36.06	2862.15
36.08	2834.846
36.1	2725.122
36.12	2828.72
36.14	2726.912
36.16	2784.275
36.18	2725.412
36.2	2725.956
36.22	2765.573
36.24	2712.322
36.26	2821.694
36.28	2824.46
36.3	2773.854
36.32	2764.783
36.34	2807.989
36.36	2815.529
36.38	2888.366
36.4	2824.421
36.42	2705.779
36.44	2719.736
36.46	2701.006
36.48	2861.214
36.5	2790.758
36.52	2693.781
36.54	2732.292
36.56	2649.827
36.58	2796.226
36.6	2742.655
36.62	2711.005
36.64	2794.696
36.66	2724.839
36.68	2747.865
36.7	2814.931
36.72	2737.266
36.74	2691.023
36.76	2739.735
36.78	2707.074
36.8	2769.66
36.82	2750.526
36.84	2764.118
36.86	2757.453
36.88	2646.732
36.9	2687.704
36.92	2690.961
36.94	2729.714
36.96	2632.444
36.98	2675.832
37	2725.716
37.02	2728.12
37.04	2693.673
37.06	2731.487
37.08	2654.08
37.1	2693.212
37.12	2803.793
37.14	2650.729
37.16	2723.911
37.18	2718.788
37.2	2692.31
37.22	2794.946
37.24	2762.265
37.26	2839.417
37.28	2919.682
37.3	2909.286
37.32	2775.541
37.34	2957.731
37.36	2906.493
37.38	2936.992
37.4	3033.478
37.42	2928.388
37.44	2926.03
37.46	2933.243
37.48	2979.665
37.5	2937.389
37.52	3032.811
37.54	2993.838
37.56	2894.644
37.58	3054.343
37.6	2919.401
37.62	2952.084
37.64	2854.593
37.66	2899.671
37.68	2974.722
37.7	3082.278
37.72	2950.301
37.74	3011.137
37.76	3026.931
37.78	2962.512
37.8	3057.113
37.82	3033.579
37.84	3162.265
37.86	3074.315
37.88	3175.786
37.9	3234.294
37.92	3180.896
37.94	3192.494
37.96	3158.735
37.98	3153.225
38	3273.878
38.02	3297.427
38.04	3338.239
38.06	3379.555
38.08	3505.131
38.1	3401.31
38.12	3453.49
38.14	3571.752
38.16	3527.948
38.18	3578.215
38.2	3776.896
38.22	3848.091
38.24	3925.517
38.26	4080.007
38.28	4269.901
38.3	4209.058
38.32	4385.688
38.34	4666.251
38.36	4837.888
38.38	5333.646
38.4	5753.181
38.42	6452.152
38.44	7138.179
38.46	8118.482
38.48	9189.924
38.5	11173.83
38.52	14171.81
38.54	19537.69
38.56	28503.36
38.58	41243.98
38.6	54721.57
38.62	62892.81
38.64	60069.31
38.66	50602.71
38.68	42629.84
38.7	40220.22
38.72	37825.8
38.74	32994.26
38.76	24947.41
38.78	17216.4
38.8	12151.59
38.82	9103.1
38.84	7346.093
38.86	6377.964
38.88	5516.834
38.9	5130.351
38.92	4758.49
38.94	4667.446
38.96	4445.864
38.98	4188.558
39	4101.854
39.02	3990.271
39.04	3914.102
39.06	3796.024
39.08	3662.012
39.1	3621.59
39.12	3506.96
39.14	3396
39.16	3379.798
39.18	3423.011
39.2	3320.176
39.22	3331.079
39.24	3215.871
39.26	3093.777
39.28	3094.405
39.3	3069.3
39.32	3063.828
39.34	2970.716
39.36	3041.751
39.38	2912.25
39.4	2886.477
39.42	2860.186
39.44	2904.36
39.46	2812.385
39.48	2746.674
39.5	2776.129
39.52	2728.881
39.54	2783.261
39.56	2838.766
39.58	2778.498
39.6	2645.099
39.62	2694.442
39.64	2675.218
39.66	2615.685
39.68	2667.333
39.7	2703.07
39.72	2676.688
39.74	2679.382
39.76	2533.658
39.78	2598.294
39.8	2522.399
39.82	2642.51
39.84	2572.93
39.86	2518.127
39.88	2524.182
39.9	2540.184
39.92	2507.705
39.94	2595.253
39.96	2559.618
39.98	2488.364
40	2581.172
40.02	2487.905
40.04	2521.24
40.06	2488.537
40.08	2419.011
40.1	2574.382
40.12	2490.866
40.14	2477.858
40.16	2426.995
40.18	2425.516
40.2	2432.645
40.22	2509.406
40.24	2377.138
40.26	2424.754
40.28	2432.805
40.3	2432.768
40.32	2470.412
40.34	2463.423
40.36	2399.31
40.38	2463.754
40.4	2426.083
40.42	2447.221
40.44	2427.425
40.46	2341.096
40.48	2513.485
40.5	2446.915
40.52	2466.391
40.54	2423.728
40.56	2416.639
40.58	2407.827
40.6	2395.13
40.62	2445.199
40.64	2439.481
40.66	2404.913
40.68	2408.957
40.7	2408.461
40.72	2431.231
40.74	2469.368
40.76	2300.355
40.78	2480.711
40.8	2413.015
40.82	2300.61
40.84	2331.251
40.86	2454.315
40.88	2425.862
40.9	2308.88
40.92	2320.06
40.94	2319.524
40.96	2344.796
40.98	2352.864
41	2402.649
41.02	2345.458
41.04	2305.006
41.06	2268.334
41.08	2281.87
41.1	2323.668
41.12	2268.867
41.14	2267.295
41.16	2336.288
41.18	2391.15
41.2	2308.872
41.22	2237.462
41.24	2323.599
41.26	2335.01
41.28	2307.815
41.3	2301.441
41.32	2190.78
41.34	2370.383
41.36	2322.599
41.38	2249.879
41.4	2286.312
41.42	2203.146
41.44	2296.275
41.46	2308.673
41.48	2260.696
41.5	2239.347
41.52	2282.156
41.54	2279.802
41.56	2259.204
41.58	2259.096
41.6	2148.916
41.62	2228.447
41.64	2342.218
41.66	2306.284
41.68	2327.404
41.7	2208.746
41.72	2203.766
41.74	2272.204
41.76	2253.67
41.78	2250.352
41.8	2188.321
41.82	2269.025
41.84	2212.029
41.86	2178.42
41.88	2139.054
41.9	2141.132
41.92	2170.363
41.94	2297.959
41.96	2233.842
41.98	2221.836
42	2211.34
42.02	2223.003
42.04	2197.147
42.06	2226.88
42.08	2169.544
42.1	2145.598
42.12	2192.466
42.14	2146.926
42.16	2190.771
42.18	2183.26
42.2	2246.528
42.22	2215.066
42.24	2182.332
42.26	2224.779
42.28	2268.023
42.3	2234.059
42.32	2178.404
42.34	2237.68
42.36	2247.699
42.38	2170.857
42.4	2171.399
42.42	2153.316
42.44	2140.674
42.46	2208.972
42.48	2203.58
42.5	2117.299
42.52	2169.397
42.54	2048.511
42.56	2121.941
42.58	2201.229
42.6	2187.865
42.62	2158.168
42.64	2133.404
42.66	2086.578
42.68	2142.878
42.7	2178.516
42.72	2193.563
42.74	2164.838
42.76	2171.874
42.78	2118.701
42.8	2149.671
42.82	2071.249
42.84	2135.519
42.86	2095.913
42.88	2082.133
42.9	2139.183
42.92	2076.071
42.94	2099.651
42.96	2105.222
42.98	2117.864
43	2110.6
43.02	2109.403
43.04	2031.78
43.06	2080.05
43.08	2168.475
43.1	2052.243
43.12	2074.487
43.14	2043.443
43.16	2156.247
43.18	1951.487
43.2	2122.559
43.22	2046.484
43.24	2059.004
43.26	2013.76
43.28	2167.259
43.3	2084.525
43.32	2134.039
43.34	2061.039
43.36	2062.848
43.38	2061.114
43.4	2141.372
43.42	2040.195
43.44	2099.08
43.46	2011.766
43.48	2013.054
43.5	2028.786
43.52	2074.402
43.54	2098.985
43.56	2133.388
43.58	2083.504
43.6	2011.37
43.62	2055.239
43.64	2008.014
43.66	2042.458
43.68	2123.698
43.7	2073.836
43.72	2114.536
43.74	2034.373
43.76	2045.919
43.78	2049.29
43.8	2020.524
43.82	1966.231
43.84	2054.261
43.86	2054.585
43.88	2038.314
43.9	2050.955
43.92	2086.135
43.94	2085.808
43.96	1951.066
43.98	2016.111
44	1986.264
44.02	1907.916
44.04	2003.658
44.06	2066.896
44.08	1950.834
44.1	2045.28
44.12	2044.168
44.14	2091.175
44.16	1914.328
44.18	2020.302
44.2	2023.62
44.22	1985.607
44.24	2101.565
44.26	1961.559
44.28	2030.261
44.3	1993.107
44.32	2094.692
44.34	1969.359
44.36	1989.128
44.38	2040.4
44.4	2022.301
44.42	1978.521
44.44	1962.723
44.46	2036.928
44.48	1943.275
44.5	1929.455
44.52	2076.841
44.54	1969.349
44.56	1978.608
44.58	1908.871
44.6	2049.236
44.62	2071.788
44.64	1985.359
44.66	1963.954
44.68	1974.035
44.7	1980.157
44.72	1936.673
44.74	1979.438
44.76	2023.626
44.78	1940.916
44.8	1990.903
44.82	1928.758
44.84	1984.148
44.86	1940.908
44.88	2003.758
44.9	1935.666
44.92	2001.957
44.94	1982.087
44.96	1977.92
44.98	1954.632
45	1934.87
45.02	1938.945
45.04	1909.496
45.06	1921.807
45.08	1897.851
45.1	1942.012
45.12	1956.318
45.14	1936.1
45.16	1846.801
45.18	1861.422
45.2	1932.302
45.22	1967.072
45.24	1931.598
45.26	1982.888
45.28	1972.335
45.3	1923.107
45.32	1874.414
45.34	1888.628
45.36	1872.419
45.38	1866.023
45.4	2018.886
45.42	1909.329
45.44	1917.798
45.46	1885.598
45.48	1994.219
45.5	1907.774
45.52	1858.306
45.54	1855.321
45.56	1926.979
45.58	1816.682
45.6	1929.026
45.62	1900.036
45.64	1946.179
45.66	1887.861
45.68	1969.15
45.7	1965.848
45.72	1964.944
45.74	1933.523
45.76	1875.26
45.78	1821.757
45.8	1812.12
45.82	1863.422
45.84	1926.89
45.86	1939.112
45.88	1859.016
45.9	1878.607
45.92	1847.969
45.94	1937.418
45.96	1902.037
45.98	1873.565
46	1896.569
46.02	1877.777
46.04	1816.379
46.06	1850.2
46.08	1852.594
46.1	1883.246
46.12	1825.828
46.14	1887.217
46.16	1887.506
46.18	1857.58
46.2	1921.708
46.22	1879.527
46.24	2003.499
46.26	1865.084
46.28	1800.464
46.3	1889.797
46.32	1860.396
46.34	1917.086
46.36	1843.807
46.38	1850.251
46.4	1857.273
46.42	1820.809
46.44	1791.409
46.46	1837.373
46.48	1810.29
46.5	1772.61
46.52	1844.69
46.54	1825.016
46.56	1771.276
46.58	1828.457
46.6	1862.039
46.62	1812.389
46.64	1803.962
46.66	1829.03
46.68	1781.236
46.7	1861.066
46.72	1874.571
46.74	1865.078
46.76	1835.107
46.78	1788.93
46.8	1825.607
46.82	1847.996
46.84	1747.174
46.86	1891.427
46.88	1843.814
46.9	1730.618
46.92	1836.388
46.94	1853.23
46.96	1777.968
46.98	1793.38
47	1722.785
47.02	1809.045
47.04	1800.427
47.06	1728.217
47.08	1801.749
47.1	1830.906
47.12	1808.896
47.14	1801.558
47.16	1740.766
47.18	1797.404
47.2	1711.443
47.22	1782.574
47.24	1767.939
47.26	1743.839
47.28	1747.686
47.3	1786.357
47.32	1800.84
47.34	1791.175
47.36	1779.578
47.38	1840.24
47.4	1749.6
47.42	1795.573
47.44	1874.695
47.46	1748.753
47.48	1786.571
47.5	1743.311
47.52	1758.755
47.54	1742.57
47.56	1828.235
47.58	1797.711
47.6	1744.945
47.62	1832.457
47.64	1744.124
47.66	1770.641
47.68	1761.365
47.7	1766.127
47.72	1764.492
47.74	1783.004
47.76	1844.644
47.78	1771.423
47.8	1778.56
47.82	1717.595
47.84	1675.309
47.86	1716.714
47.88	1736.781
47.9	1797.797
47.92	1717.758
47.94	1775.277
47.96	1711.933
47.98	1709.083
48	1705.913
48.02	1726.601
48.04	1730.353
48.06	1707.233
48.08	1730.024
48.1	1768.542
48.12	1699.441
48.14	1723.042
48.16	1772.888
48.18	1778.438
48.2	1748.257
48.22	1734.653
48.24	1731.308
48.26	1746.863
48.28	1746.351
48.3	1695.609
48.32	1824.776
48.34	1770.107
48.36	1727.988
48.38	1675.81
48.4	1721.374
48.42	1780.084
48.44	1699.745
48.46	1710.099
48.48	1684.096
48.5	1747.255
48.52	1628.235
48.54	1737.703
48.56	1714.299
48.58	1680.467
48.6	1702.624
48.62	1751.434
48.64	1699.965
48.66	1687.732
48.68	1638.086
48.7	1695.787
48.72	1690.316
48.74	1589.258
48.76	1738.292
48.78	1807.456
48.8	1842.088
48.82	1734.294
48.84	1703.046
48.86	1727.409
48.88	1819.744
48.9	1746.144
48.92	1593.256
48.94	1661.907
48.96	1817.791
48.98	1690.105
49	1757.867
49.02	1752.699
49.04	1698.237
49.06	1681.793
49.08	1676.07
49.1	1706.015
49.12	1721.055
49.14	1716.786
49.16	1695.533
49.18	1715.863
49.2	1668.395
49.22	1635.186
49.24	1642.511
49.26	1682.929
49.28	1716.187
49.3	1750.155
49.32	1699.506
49.34	1713.759
49.36	1718.921
49.38	1710.292
49.4	1695.058
49.42	1663.736
49.44	1754.627
49.46	1703.907
49.48	1739.62
49.5	1633.272
49.52	1650.226
49.54	1686.087
49.56	1753.522
49.58	1691.487
49.6	1653.211
49.62	1772.673
49.64	1709.565
49.66	1705.818
49.68	1674.374
49.7	1634.677
49.72	1678.641
49.74	1755.16
49.76	1685.014
49.78	1754.024
49.8	1611.584
49.82	1609.602
49.84	1765.626
49.86	1758.028
49.88	1734.832
49.9	1717.413
49.92	1753.911
49.94	1690.647
49.96	1714.26
49.98	1705.272
50	1758.051
50.02	1836.715
50.04	1789.113
50.06	1730.425
50.08	1777.001
50.1	1742.781
50.12	1810.572
50.14	1830.867
50.16	1734.644
50.18	1831.357
50.2	1741.005
50.22	1779.636
50.24	1736.301
50.26	1766.711
50.28	1787.685
50.3	1793.257
50.32	1755.81
50.34	1770.793
50.36	1841.627
50.38	1774.853
50.4	1845.569
50.42	1816.888
50.44	1837.005
50.46	1809.018
50.48	1888.263
50.5	1783.002
50.52	1828.407
50.54	1802.05
50.56	1887.223
50.58	1945.436
50.6	1864.139
50.62	1884.292
50.64	1822.882
50.66	1850.645
50.68	1880.916
50.7	1827.383
50.72	1774.603
50.74	1864.21
50.76	1895.302
50.78	1855.385
50.8	1881.312
50.82	1830.891
50.84	1807.216
50.86	1891.247
50.88	1769.722
50.9	1852.447
50.92	1812.894
50.94	1777.667
50.96	1732.955
50.98	1723.11
51	1809.071
51.02	1746.207
51.04	1691.453
51.06	1710.454
51.08	1704.966
51.1	1786.604
51.12	1743.299
51.14	1762.534
51.16	1663.533
51.18	1751.077
51.2	1674.653
51.22	1679.472
51.24	1700.096
51.26	1689.944
51.28	1734.641
51.3	1684.559
51.32	1645.16
51.34	1661.234
51.36	1645.83
51.38	1715.969
51.4	1665.932
51.42	1589.466
51.44	1647.041
51.46	1594.769
51.48	1585.377
51.5	1596.103
51.52	1626.599
51.54	1636.507
51.56	1593.892
51.58	1612.366
51.6	1552.128
51.62	1628.445
51.64	1622.122
51.66	1648.34
51.68	1599.349
51.7	1530.936
51.72	1532.798
51.74	1594.02
51.76	1586.077
51.78	1604.295
51.8	1575.294
51.82	1620.192
51.84	1628.337
51.86	1595.344
51.88	1615.668
51.9	1677.419
51.92	1642.358
51.94	1593.905
51.96	1544.582
51.98	1578.851
52	1584.23
52.02	1553.632
52.04	1605.333
52.06	1644.776
52.08	1632.911
52.1	1600.263
52.12	1578.194
52.14	1636.029
52.16	1551.116
52.18	1608.146
52.2	1572.94
52.22	1592.728
52.24	1617.589
52.26	1571.205
52.28	1547.02
52.3	1558.624
52.32	1609.426
52.34	1578.025
52.36	1583.129
52.38	1528.546
52.4	1576.813
52.42	1546.685
52.44	1584.937
52.46	1591.207
52.48	1608.509
52.5	1580.878
52.52	1564.474
52.54	1608.016
52.56	1635.527
52.58	1592.006
52.6	1605.02
52.62	1612.085
52.64	1529.609
52.66	1594.075
52.68	1513.004
52.7	1540.906
52.72	1527.238
52.74	1557.634
52.76	1611.68
52.78	1525.043
52.8	1548.667
52.82	1498.231
52.84	1617.587
52.86	1556.592
52.88	1518.732
52.9	1581.216
52.92	1525.881
52.94	1587.656
52.96	1564.327
52.98	1541.908
53	1618.234
53.02	1526.267
53.04	1523.015
53.06	1579.725
53.08	1649.178
53.1	1537.818
53.12	1469.636
53.14	1535.868
53.16	1551.382
53.18	1547.073
53.2	1475.391
53.22	1551.82
53.24	1569.059
53.26	1556.7
53.28	1526.798
53.3	1615.438
53.32	1538.034
53.34	1575.055
53.36	1569.162
53.38	1558.298
53.4	1609.016
53.42	1506.405
53.44	1574.234
53.46	1579.561
53.48	1592.791
53.5	1605.143
53.52	1555.171
53.54	1505.26
53.56	1564.63
53.58	1579.657
53.6	1585.197
53.62	1550.308
53.64	1496.6
53.66	1571.852
53.68	1539.365
53.7	1564.886
53.72	1534.701
53.74	1479.246
53.76	1617.966
53.78	1577.317
53.8	1588.151
53.82	1603.577
53.84	1501.257
53.86	1553.918
53.88	1501.871
53.9	1599.274
53.92	1604.566
53.94	1535.224
53.96	1551.29
53.98	1480.232
54	1543.042
54.02	1626.229
54.04	1559.175
54.06	1531.682
54.08	1547.925
54.1	1598.684
54.12	1580.678
54.14	1529.869
54.16	1490.642
54.18	1632.544
54.2	1571.699
54.22	1507.836
54.24	1597.334
54.26	1525.468
54.28	1584.002
54.3	1546.913
54.32	1549.737
54.34	1576.238
54.36	1607.185
54.38	1532.872
54.4	1597.08
54.42	1551.309
54.44	1573.732
54.46	1596.74
54.48	1545.753
54.5	1560.518
54.52	1639.34
54.54	1582.764
54.56	1628.4
54.58	1632.504
54.6	1559.163
54.62	1656.637
54.64	1584.828
54.66	1596.15
54.68	1651.27
54.7	1576.042
54.72	1571.977
54.74	1564.107
54.76	1632.76
54.78	1693.03
54.8	1580.065
54.82	1695.763
54.84	1673.91
54.86	1649.449
54.88	1559.893
54.9	1622.765
54.92	1612.229
54.94	1689.432
54.96	1647.86
54.98	1621.125
55	1702.158
55.02	1734.834
55.04	1695.436
55.06	1642.745
55.08	1661.426
55.1	1699.207
55.12	1733.824
55.14	1623.977
55.16	1762.12
55.18	1749.014
55.2	1816.75
55.22	1754.491
55.24	1792.098
55.26	1758.265
55.28	1831.378
55.3	1859.465
55.32	1804.488
55.34	1828.2
55.36	1786.026
55.38	1852.863
55.4	1927.155
55.42	1947.885
55.44	1946.513
55.46	1935.663
55.48	2033.143
55.5	2034.487
55.52	2053.287
55.54	2183.809
55.56	2153.139
55.58	2212.768
55.6	2264.688
55.62	2424.085
55.64	2532.973
55.66	2792.361
55.68	2901.529
55.7	3227.636
55.72	3733.195
55.74	4403.955
55.76	5075.125
55.78	5896.621
55.8	6345.479
55.82	6548.193
55.84	6296.016
55.86	5804.175
55.88	5294.731
55.9	5038.517
55.92	4812.388
55.94	4838.204
55.96	4845.335
55.98	4640.614
56	4131.052
56.02	3625.144
56.04	3161.678
56.06	2850.273
56.08	2673.971
56.1	2418.033
56.12	2328.317
56.14	2313.343
56.16	2165.901
56.18	2079.308
56.2	2076.273
56.22	2039.956
56.24	1973.879
56.26	1897.123
56.28	1879.43
56.3	1916.123
56.32	1879.921
56.34	1851.495
56.36	1853.715
56.38	1897.71
56.4	1844.631
56.42	1783.941
56.44	1700.084
56.46	1713.706
56.48	1756.213
56.5	1681.375
56.52	1686.642
56.54	1751.336
56.56	1720.75
56.58	1692.001
56.6	1683.656
56.62	1669.382
56.64	1578.114
56.66	1595.007
56.68	1652.771
56.7	1634.665
56.72	1619.318
56.74	1545.707
56.76	1545.369
56.78	1662.38
56.8	1578.83
56.82	1602.645
56.84	1573.929
56.86	1577.508
56.88	1601.548
56.9	1579.146
56.92	1553.849
56.94	1562.85
56.96	1613.984
56.98	1581.723
57	1582.097
57.02	1561.532
57.04	1521.241
57.06	1595.928
57.08	1563.911
57.1	1506.229
57.12	1491.399
57.14	1477.23
57.16	1532.153
57.18	1547.472
57.2	1458.716
57.22	1510.13
57.24	1453.9
57.26	1465.932
57.28	1485.207
57.3	1431.005
57.32	1424.865
57.34	1484.909
57.36	1487.911
57.38	1559.656
57.4	1515.726
57.42	1498.108
57.44	1501.502
57.46	1512.266
57.48	1503.985
57.5	1520.833
57.52	1512.295
57.54	1512.489
57.56	1467.772
57.58	1442.522
57.6	1442.15
57.62	1517.065
57.64	1467.836
57.66	1532.619
57.68	1480.566
57.7	1447.476
57.72	1524.753
57.74	1479.74
57.76	1516.783
57.78	1465.048
57.8	1445.699
57.82	1515.032
57.84	1505.779
57.86	1474.451
57.88	1509.528
57.9	1460.262
57.92	1444.742
57.94	1496.466
57.96	1514.178
57.98	1409.21
58	1515.715
58.02	1467.79
58.04	1512.131
58.06	1483.223
58.08	1473.517
58.1	1451.669
58.12	1510.176
58.14	1478.478
58.16	1431.828
58.18	1500.417
58.2	1511.695
58.22	1423.615
58.24	1464.054
58.26	1485.517
58.28	1492.449
58.3	1488.071
58.32	1455.781
58.34	1407.447
58.36	1442.607
58.38	1429.172
58.4	1485.985
58.42	1395.452
58.44	1407.399
58.46	1392.708
58.48	1421.455
58.5	1395.758
58.52	1455.912
58.54	1402.996
58.56	1471.247
58.58	1448.421
58.6	1482.272
58.62	1525.287
58.64	1468.463
58.66	1417.784
58.68	1412.452
58.7	1459.789
58.72	1452.63
58.74	1399.882
58.76	1443.09
58.78	1419.247
58.8	1475.984
58.82	1462.025
58.84	1425.519
58.86	1492.071
58.88	1420.451
58.9	1438.378
58.92	1439.938
58.94	1411.578
58.96	1427.293
58.98	1451.443
59	1455.505
59.02	1521.061
59.04	1389.036
59.06	1445.434
59.08	1357.801
59.1	1448.251
59.12	1452.569
59.14	1456.079
59.16	1477.583
59.18	1404.752
59.2	1408.021
59.22	1358.887
59.24	1457.193
59.26	1427.472
59.28	1419.149
59.3	1489.099
59.32	1432.519
59.34	1474.227
59.36	1509.531
59.38	1422.696
59.4	1408.57
59.42	1436.661
59.44	1392.847
59.46	1459.86
59.48	1425.703
59.5	1484.758
59.52	1406.85
59.54	1394.142
59.56	1420.146
59.58	1379.687
59.6	1381.652
59.62	1359.411
59.64	1422.578
59.66	1422.408
59.68	1418.562
59.7	1516.818
59.72	1421.148
59.74	1351.137
59.76	1461.484
59.78	1451.005
59.8	1392.84
59.82	1421.011
59.84	1377.5
59.86	1421.414
59.88	1423.605
59.9	1451.505
59.92	1497.82
59.94	1363.825
59.96	1407.938
59.98	1386.979
60	1379.927
60.02	1415.123
60.04	1454.531
60.06	1414.082
60.08	1347.483
60.1	1410.579
60.12	1460.121
60.14	1393.538
60.16	1392.776
60.18	1419.187
60.2	1364.598
60.22	1422.25
60.24	1390.857
60.26	1403.693
60.28	1405.967
60.3	1443.806
60.32	1443.485
60.34	1434.947
60.36	1399.748
60.38	1393.331
60.4	1421.172
60.42	1384.346
60.44	1364.438
60.46	1437.106
60.48	1453.559
60.5	1374.042
60.52	1326.176
60.54	1392.712
60.56	1446.95
60.58	1432.602
60.6	1409.294
60.62	1403.85
60.64	1396.983
60.66	1363.976
60.68	1376.985
60.7	1396.87
60.72	1379.6
60.74	1358.826
60.76	1420.292
60.78	1364.046
60.8	1352.907
60.82	1398.913
60.84	1329.975
60.86	1473.228
60.88	1420.726
60.9	1338.363
60.92	1304.406
60.94	1381.253
60.96	1389.344
60.98	1377.731
61	1374.272
61.02	1373.539
61.04	1406.161
61.06	1410.49
61.08	1419.322
61.1	1350.89
61.12	1352.311
61.14	1378.063
61.16	1342.623
61.18	1390.435
61.2	1321.444
61.22	1397.143
61.24	1403.397
61.26	1375.995
61.28	1413.282
61.3	1326.757
61.32	1365.196
61.34	1413.506
61.36	1380.082
61.38	1407.591
61.4	1401.33
61.42	1327.574
61.44	1336.819
61.46	1385.723
61.48	1384.664
61.5	1342.739
61.52	1396.956
61.54	1396.614
61.56	1404.377
61.58	1353.664
61.6	1417.374
61.62	1359.984
61.64	1320.113
61.66	1353.695
61.68	1445.789
61.7	1397.853
61.72	1400.223
61.74	1416.863
61.76	1350.113
61.78	1369.782
61.8	1390.629
61.82	1353.694
61.84	1359.881
61.86	1402.698
61.88	1477.909
61.9	1381.872
61.92	1344.794
61.94	1406.976
61.96	1327.231
61.98	1367.29
62	1374.939
62.02	1351.304
62.04	1390.496
62.06	1358.969
62.08	1421.107
62.1	1398.483
62.12	1404.281
62.14	1378.798
62.16	1400.355
62.18	1415.497
62.2	1352.002
62.22	1396.11
62.24	1408.909
62.26	1339.619
62.28	1377.787
62.3	1405.975
62.32	1368.131
62.34	1375.116
62.36	1410.335
62.38	1357.98
62.4	1404.928
62.42	1413.889
62.44	1364.36
62.46	1354.196
62.48	1357.369
62.5	1343.781
62.52	1417.141
62.54	1452.285
62.56	1418.044
62.58	1355.208
62.6	1438.447
62.62	1416.719
62.64	1385.62
62.66	1382.881
62.68	1404.927
62.7	1357.034
62.72	1442.135
62.74	1377.76
62.76	1383.35
62.78	1369.443
62.8	1426.168
62.82	1351.655
62.84	1357.931
62.86	1354.267
62.88	1374.259
62.9	1324.867
62.92	1360.96
62.94	1403.859
62.96	1366.374
62.98	1408.119
63	1397.21
63.02	1382.965
63.04	1320.76
63.06	1349.704
63.08	1321.023
63.1	1433.37
63.12	1383.993
63.14	1387.677
63.16	1394.944
63.18	1411.675
63.2	1425.251
63.22	1347.467
63.24	1414.424
63.26	1356.91
63.28	1378.942
63.3	1388.888
63.32	1351.799
63.34	1380.943
63.36	1416.834
63.38	1394.433
63.4	1431.864
63.42	1394.539
63.44	1362.431
63.46	1374.782
63.48	1397.127
63.5	1364.714
63.52	1399.93
63.54	1369.71
63.56	1393.759
63.58	1357.234
63.6	1409.556
63.62	1308.309
63.64	1383.665
63.66	1347.815
63.68	1458.271
63.7	1372.133
63.72	1362.918
63.74	1388.742
63.76	1397.768
63.78	1415.802
63.8	1418.615
63.82	1371.925
63.84	1402.311
63.86	1360.052
63.88	1418.813
63.9	1372.474
63.92	1372.24
63.94	1406.67
63.96	1400.352
63.98	1434.145
64	1355.865
64.02	1340.489
64.04	1278.198
64.06	1331.46
64.08	1374.485
64.1	1360.183
64.12	1381.817
64.14	1389.212
64.16	1341.874
64.18	1415.897
64.2	1356.365
64.22	1309.729
64.24	1345.565
64.26	1367.603
64.28	1363.467
64.3	1359.598
64.32	1347.531
64.34	1361.035
64.36	1347.067
64.38	1366.033
64.4	1392.117
64.42	1388.13
64.44	1386.156
64.46	1393.725
64.48	1339.318
64.5	1364.201
64.52	1359.939
64.54	1379.957
64.56	1340.448
64.58	1315.352
64.6	1372.354
64.62	1419.325
64.64	1437.471
64.66	1385.337
64.68	1440.996
64.7	1397.96
64.72	1350.141
64.74	1397.253
64.76	1376.192
64.78	1425.172
64.8	1413.868
64.82	1323.297
64.84	1378.098
64.86	1365.565
64.88	1439.436
64.9	1444.618
64.92	1371.794
64.94	1442.368
64.96	1365.77
64.98	1409.791
65	1421.311
65.02	1438.837
65.04	1469.829
65.06	1481.739
65.08	1516.795
65.1	1499.314
65.12	1509.971
65.14	1515.003
65.16	1558.151
65.18	1511.133
65.2	1471.257
65.22	1559.492
65.24	1617.788
65.26	1535.81
65.28	1585.207
65.3	1552.888
65.32	1561.103
65.34	1681.738
65.36	1706.732
65.38	1675.05
65.4	1683.997
65.42	1723.746
65.44	1709.163
65.46	1783.287
65.48	1725.091
65.5	1753.104
65.52	1747.959
65.54	1724.488
65.56	1702.393
65.58	1706.115
65.6	1626.523
65.62	1726.455
65.64	1659.213
65.66	1693.418
65.68	1601.198
65.7	1704.224
65.72	1579.03
65.74	1607.169
65.76	1640.627
65.78	1625.857
65.8	1661.181
65.82	1568.896
65.84	1510.171
65.86	1548.647
65.88	1492.475
65.9	1496.011
65.92	1520.001
65.94	1436.482
65.96	1427.249
65.98	1387.713
66	1415.525
66.02	1431.52
66.04	1475.889
66.06	1479.4
66.08	1457.971
66.1	1450.379
66.12	1418.035
66.14	1379.627
66.16	1450.839
66.18	1432.676
66.2	1395.871
66.22	1427.885
66.24	1337.348
66.26	1341.728
66.28	1439.411
66.3	1341.008
66.32	1417.655
66.34	1371.251
66.36	1408.115
66.38	1374.423
66.4	1375.964
66.42	1377.484
66.44	1394.133
66.46	1386.992
66.48	1267.427
66.5	1296.538
66.52	1332.42
66.54	1358.962
66.56	1320.635
66.58	1386.246
66.6	1353.805
66.62	1373.75
66.64	1331.498
66.66	1357.564
66.68	1348.673
66.7	1313.354
66.72	1386.561
66.74	1341.218
66.76	1309.169
66.78	1365.592
66.8	1281.947
66.82	1318.319
66.84	1346.274
66.86	1277.815
66.88	1341.279
66.9	1331.294
66.92	1358.267
66.94	1330.843
66.96	1307.761
66.98	1388.701
67	1327.807
67.02	1347.307
67.04	1431.794
67.06	1307.408
67.08	1272.352
67.1	1313.065
67.12	1334.188
67.14	1352.727
67.16	1408.613
67.18	1272.727
67.2	1321.964
67.22	1337.445
67.24	1358.881
67.26	1301.975
67.28	1385.404
67.3	1353.293
67.32	1337.494
67.34	1388.113
67.36	1369.571
67.38	1322.472
67.4	1371.754
67.42	1371
67.44	1359.149
67.46	1365.281
67.48	1364.116
67.5	1379.577
67.52	1355.998
67.54	1368.864
67.56	1372.027
67.58	1358.856
67.6	1420.449
67.62	1375.014
67.64	1372.432
67.66	1302.907
67.68	1354.452
67.7	1321.491
67.72	1402.867
67.74	1386.87
67.76	1319.412
67.78	1261.335
67.8	1405.223
67.82	1347.892
67.84	1349.858
67.86	1371.444
67.88	1361.014
67.9	1388.425
67.92	1324.322
67.94	1408.767
67.96	1415.034
67.98	1373.139
68	1363.64
68.02	1336.333
68.04	1374.398
68.06	1344.197
68.08	1353.057
68.1	1372.171
68.12	1392.962
68.14	1378.797
68.16	1375.127
68.18	1385.894
68.2	1382.694
68.22	1322.389
68.24	1314.962
68.26	1386.512
68.28	1362.496
68.3	1361.764
68.32	1355.213
68.34	1411.53
68.36	1421.96
68.38	1410.798
68.4	1413.766
68.42	1434.105
68.44	1374.381
68.46	1300.851
68.48	1387.482
68.5	1432.64
68.52	1391.095
68.54	1413.76
68.56	1352.154
68.58	1458.006
68.6	1412.818
68.62	1336.844
68.64	1336.414
68.66	1387.272
68.68	1391.945
68.7	1388.976
68.72	1410.121
68.74	1336.969
68.76	1440.183
68.78	1431.089
68.8	1409.524
68.82	1427.782
68.84	1431.636
68.86	1426.278
68.88	1490.207
68.9	1423.897
68.92	1390.354
68.94	1433.425
68.96	1429.806
68.98	1452.574
69	1503.898
69.02	1455.565
69.04	1518.494
69.06	1422.208
69.08	1527.479
69.1	1500.353
69.12	1465.673
69.14	1492.529
69.16	1524.399
69.18	1578.439
69.2	1540.942
69.22	1522.522
69.24	1568.583
69.26	1618.993
69.28	1587.683
69.3	1570.965
69.32	1689.483
69.34	1637.298
69.36	1676.326
69.38	1584.035
69.4	1624.571
69.42	1626.361
69.44	1606.991
69.46	1693.159
69.48	1771.645
69.5	1722.353
69.52	1735.969
69.54	1900.189
69.56	1806.573
69.58	1795.842
69.6	1932.238
69.62	1910.484
69.64	1951.1
69.66	1994.376
69.68	2059.546
69.7	2161.258
69.72	2124.533
69.74	2199.368
69.76	2439.423
69.78	2466.984
69.8	2564.089
69.82	2799.816
69.84	3054.406
69.86	3372.149
69.88	4019.965
69.9	4669.993
69.92	5689.725
69.94	7081.256
69.96	8351.912
69.98	9404.803
70	9788.84
70.02	9563.962
70.04	8504.511
70.06	7349.383
70.08	6366.346
70.1	5780.035
70.12	5571.547
70.14	5619.432
70.16	6167.78
70.18	6261.26
70.2	6195.394
70.22	5880.84
70.24	5332.107
70.26	4694.537
70.28	3957.896
70.3	3402.431
70.32	3032.115
70.34	2781.018
70.36	2577.511
70.38	2371.427
70.4	2237.343
70.42	2113.865
70.44	2099.977
70.46	2063.548
70.48	1980.798
70.5	1966.681
70.52	1853.417
70.54	1840.702
70.56	1788.502
70.58	1858.164
70.6	1793.854
70.62	1763.814
70.64	1749.948
70.66	1699.962
70.68	1658.65
70.7	1613.057
70.72	1617.859
70.74	1584.507
70.76	1599.831
70.78	1569.964
70.8	1544.535
70.82	1568.281
70.84	1538.187
70.86	1541.488
70.88	1510.201
70.9	1495.514
70.92	1382.68
70.94	1497.144
70.96	1536.381
70.98	1440.372
71	1438.206
71.02	1482.104
71.04	1470.066
71.06	1335.416
71.08	1346.268
71.1	1435.366
71.12	1348.088
71.14	1355.146
71.16	1342.845
71.18	1435.018
71.2	1357.724
71.22	1372.851
71.24	1377.007
71.26	1378.165
71.28	1289.977
71.3	1301.924
71.32	1372.399
71.34	1364.488
71.36	1432.094
71.38	1324.964
71.4	1332.76
71.42	1307.808
71.44	1320.71
71.46	1399.73
71.48	1365.501
71.5	1319.239
71.52	1312.21
71.54	1295.976
71.56	1364.923
71.58	1245.208
71.6	1316.041
71.62	1318.015
71.64	1252.57
71.66	1258.942
71.68	1245.492
71.7	1270.503
71.72	1312.5
71.74	1265.385
71.76	1233.599
71.78	1260.486
71.8	1342.447
71.82	1335.892
71.84	1312.53
71.86	1237.314
71.88	1281.751
71.9	1309.988
71.92	1262.883
71.94	1379.92
71.96	1334.539
71.98	1261.216
72	1302.135
72.02	1301.8
72.04	1287.293
72.06	1235.465
72.08	1262.035
72.1	1290.958
72.12	1255.646
72.14	1289.134
72.16	1240.845
72.18	1342.882
72.2	1307.258
72.22	1245.599
72.24	1254.723
72.26	1306.232
72.28	1240.23
72.3	1228.262
72.32	1278.968
72.34	1204.447
72.36	1234.66
72.38	1263.824
72.4	1270.082
72.42	1207.254
72.44	1292.043
72.46	1244.594
72.48	1302.63
72.5	1272.262
72.52	1225.553
72.54	1229.996
72.56	1255.12
72.58	1294.012
72.6	1227.563
72.62	1246.19
72.64	1251.154
72.66	1215.14
72.68	1215.505
72.7	1245.764
72.72	1224.724
72.74	1277.577
72.76	1263.604
72.78	1247.46
72.8	1224.762
72.82	1297.242
72.84	1245.524
72.86	1218.996
72.88	1262.672
72.9	1234.461
72.92	1233.538
72.94	1238.888
72.96	1268.555
72.98	1239.712
73	1262.313
73.02	1254.006
73.04	1214.862
73.06	1244.798
73.08	1219.412
73.1	1256.123
73.12	1219.615
73.14	1231.17
73.16	1210.669
73.18	1223.066
73.2	1203.305
73.22	1149.713
73.24	1268.909
73.26	1211.495
73.28	1179.66
73.3	1229.274
73.32	1196.639
73.34	1180.967
73.36	1239.569
73.38	1231.939
73.4	1266.246
73.42	1192.922
73.44	1194.378
73.46	1214.372
73.48	1303.295
73.5	1196.671
73.52	1184.067
73.54	1241.95
73.56	1170.791
73.58	1220.401
73.6	1205.856
73.62	1249.944
73.64	1186.585
73.66	1179.404
73.68	1172.816
73.7	1217.502
73.72	1195.282
73.74	1207.141
73.76	1188.964
73.78	1163.93
73.8	1170.46
73.82	1196.461
73.84	1238.63
73.86	1178.743
73.88	1167.204
73.9	1144.09
73.92	1247.637
73.94	1233.206
73.96	1271.306
73.98	1198.327
74	1181.066
74.02	1175.511
74.04	1261.561
74.06	1251.434
74.08	1199.743
74.1	1177.682
74.12	1239.33
74.14	1259.329
74.16	1240.345
74.18	1169.545
74.2	1203.34
74.22	1185.136
74.24	1183.524
74.26	1238.694
74.28	1215.391
74.3	1199.286
74.32	1166.31
74.34	1139.28
74.36	1172.746
74.38	1157.73
74.4	1115.648
74.42	1161.485
74.44	1240.857
74.46	1183.437
74.48	1234.478
74.5	1166.314
74.52	1198.55
74.54	1147.494
74.56	1189.68
74.58	1169.379
74.6	1194.306
74.62	1180.327
74.64	1221.15
74.66	1144.687
74.68	1130.744
74.7	1217.679
74.72	1167.377
74.74	1141.585
74.76	1177.426
74.78	1194.457
74.8	1199.554
74.82	1165.139
74.84	1150.393
74.86	1150.325
74.88	1232.545
74.9	1147.444
74.92	1172.967
74.94	1172.501
74.96	1184.515
74.98	1171.526
75	1138.601
75.02	1198.8
75.04	1175.908
75.06	1192.728
75.08	1153.945
75.1	1227.405
75.12	1232.318
75.14	1225.925
75.16	1126.318
75.18	1159.196
75.2	1210.604
75.22	1180.196
75.24	1207.429
75.26	1140.802
75.28	1225.574
75.3	1182.356
75.32	1159.001
75.34	1194.145
75.36	1226.323
75.38	1220.975
75.4	1191.143
75.42	1169.984
75.44	1181.232
75.46	1182.448
75.48	1212.031
75.5	1182.27
75.52	1252.167
75.54	1152.533
75.56	1195.187
75.58	1206.543
75.6	1153.042
75.62	1165.525
75.64	1118.103
75.66	1145.933
75.68	1215.961
75.7	1201.865
75.72	1206.483
75.74	1188.573
75.76	1227.316
75.78	1234.841
75.8	1179.061
75.82	1202.051
75.84	1189.172
75.86	1132.146
75.88	1109.466
75.9	1146.55
75.92	1148.517
75.94	1174.555
75.96	1201.339
75.98	1196.652
76	1154.283
76.02	1181.214
76.04	1186.038
76.06	1177.858
76.08	1190.305
76.1	1150.858
76.12	1118.987
76.14	1128.519
76.16	1172.383
76.18	1120.388
76.2	1198.088
76.22	1193.194
76.24	1182.731
76.26	1180.018
76.28	1220.853
76.3	1173.026
76.32	1200.185
76.34	1194.217
76.36	1161.015
76.38	1158.878
76.4	1172.734
76.42	1131.913
76.44	1157.982
76.46	1213.841
76.48	1132.35
76.5	1145.538
76.52	1186.883
76.54	1188.222
76.56	1167.002
76.58	1161.6
76.6	1193.302
76.62	1228.874
76.64	1177.26
76.66	1206.782
76.68	1183.619
76.7	1135.016
76.72	1221.423
76.74	1202.842
76.76	1184.861
76.78	1180.614
76.8	1172.332
76.82	1159.39
76.84	1186.064
76.86	1228.148
76.88	1169.978
76.9	1217.104
76.92	1199.626
76.94	1183.101
76.96	1214.498
76.98	1120.795
77	1188.16
77.02	1205.262
77.04	1211.375
77.06	1198.202
77.08	1172.788
77.1	1185.877
77.12	1190.333
77.14	1198.689
77.16	1151.763
77.18	1175.537
77.2	1222.759
77.22	1189.331
77.24	1237.956
77.26	1128.809
77.28	1220.18
77.3	1198.221
77.32	1185.433
77.34	1176.385
77.36	1157.618
77.38	1160.054
77.4	1184.866
77.42	1208.365
77.44	1145.424
77.46	1200.464
77.48	1232.834
77.5	1171.726
77.52	1240.272
77.54	1216.943
77.56	1202.657
77.58	1211.026
77.6	1183.066
77.62	1216.33
77.64	1206.398
77.66	1143.442
77.68	1211.878
77.7	1166.413
77.72	1155.514
77.74	1195.745
77.76	1159.671
77.78	1213.252
77.8	1182.182
77.82	1247.903
77.84	1265.933
77.86	1253.966
77.88	1222.365
77.9	1199.682
77.92	1226.473
77.94	1269.595
77.96	1238.001
77.98	1207.565
78	1183.489
78.02	1266.208
78.04	1336.281
78.06	1206.977
78.08	1265.899
78.1	1330.949
78.12	1321.339
78.14	1283.101
78.16	1391.573
78.18	1310.821
78.2	1358.83
78.22	1418.209
78.24	1374.934
78.26	1350.947
78.28	1332.808
78.3	1399.669
78.32	1428.826
78.34	1409.913
78.36	1451.013
78.38	1465.945
78.4	1486.402
78.42	1521.053
78.44	1608.263
78.46	1633.764
78.48	1682.633
78.5	1622.881
78.52	1665.276
78.54	1722.514
78.56	1705.235
78.58	1742.989
78.6	1743.678
78.62	1916.822
78.64	1771.704
78.66	1761.297
78.68	1806.397
78.7	1812.434
78.72	1857.273
78.74	1867.434
78.76	1918
78.78	1957.281
78.8	1938.149
78.82	1889.784
78.84	1934.879
78.86	1813.022
78.88	1953.865
78.9	1850.696
78.92	1879.629
78.94	1803.872
78.96	1896.204
78.98	1877.72
79	1781.304
79.02	1849.916
79.04	1838.509
79.06	1767.503
79.08	1709.542
79.1	1728.052
79.12	1732.421
79.14	1691.113
79.16	1676.59
79.18	1661.305
79.2	1667.036
79.22	1646.333
79.24	1518.237
79.26	1598.829
79.28	1575.203
79.3	1545.147
79.32	1519.841
79.34	1554.74
79.36	1484.934
79.38	1535.484
79.4	1412.607
79.42	1388.155
79.44	1351.266
79.46	1324.839
79.48	1362.5
79.5	1397.757
79.52	1315.007
79.54	1232.988
79.56	1299.32
79.58	1373.256
79.6	1289.648
79.62	1254.447
79.64	1306.097
79.66	1264.857
79.68	1185.188
79.7	1203.911
79.72	1242.589
79.74	1226.259
79.76	1202.148
79.78	1260.812
79.8	1178.735
79.82	1199.878
79.84	1208.856
79.86	1249.413
79.88	1136.761
79.9	1203.299
79.92	1110.954
79.94	1119.244
79.96	1048.966
79.98	1155.655
80	1149.275
80.02	1234.701
80.04	1227.768
80.06	1162.043
80.08	1144.184
80.1	1136.014
80.12	1155.255
80.14	1117.829
80.16	1161.771
80.18	1185.115
80.2	1146.182
80.22	1195.002
80.24	1186.958
80.26	1132.071
80.28	1129.153
80.3	1166.584
80.32	1116.189
80.34	1157.808
80.36	1086.766
80.38	1165.675
80.4	1171.511
80.42	1126.563
80.44	1123.677
80.46	1158.648
80.48	1133.052
80.5	1202.573
80.52	1111.253
80.54	1148.015
80.56	1054.462
80.58	1122.892
80.6	1072.927
80.62	1131.17
80.64	1097.821
80.66	1161.291
80.68	1062.328
80.7	1117.112
80.72	1110.582
80.74	1163.672
80.76	1185.733
80.78	1130.014
80.8	1128.648
80.82	1122.437
80.84	1089.984
80.86	1128.326
80.88	1119.889
80.9	1149.448
80.92	1081.065
80.94	1093.206
80.96	1159.112
80.98	1197.15
81	1093.796
81.02	1118.917
81.04	1125.931
81.06	1052.127
81.08	1184.672
81.1	1161.443
81.12	1121.584
81.14	1045.506
81.16	1151.475
81.18	1124.828
81.2	1074.074
81.22	1106.186
81.24	1090.411
81.26	1105.143
81.28	1074.916
81.3	1098.616
81.32	1155.489
81.34	1098.03
81.36	1060.837
81.38	1171.809
81.4	1098.631
81.42	1094.022
81.44	1141.416
81.46	1093.033
81.48	1196.715
81.5	1130.825
81.52	1129.809
81.54	1151.056
81.56	1150.384
81.58	1123.773
81.6	1069.827
81.62	1117.148
81.64	1152.489
81.66	1100.371
81.68	1121.003
81.7	1146.062
81.72	1189.866
81.74	1106.443
81.76	1105.315
81.78	1188.687
81.8	1145.436
81.82	1171.213
81.84	1103.973
81.86	1134.212
81.88	1151.755
81.9	1170.779
81.92	1170.683
81.94	1136.767
81.96	1108.672
81.98	1109.47
82	1158.775
82.02	1112.264
82.04	1111.995
82.06	1178.732
82.08	1191.005
82.1	1148.962
82.12	1119.616
82.14	1105.845
82.16	1193.78
82.18	1167.75
82.2	1121.395
82.22	1178.908
82.24	1138.626
82.26	1181.55
82.28	1147.602
82.3	1146.677
82.32	1155.656
82.34	1175.824
82.36	1142.278
82.38	1182.618
82.4	1195.933
82.42	1186.677
82.44	1221.81
82.46	1192.793
82.48	1215.19
82.5	1243.714
82.52	1184.927
82.54	1201.186
82.56	1261.137
82.58	1283.274
82.6	1226.367
82.62	1282.189
82.64	1270.715
82.66	1278.988
82.68	1298.492
82.7	1283.655
82.72	1395.61
82.74	1361.205
82.76	1388.365
82.78	1478.497
82.8	1485.935
82.82	1558.52
82.84	1636.524
82.86	1767.864
82.88	1972.381
82.9	2187.273
82.92	2472.589
82.94	2570.128
82.96	2655.73
82.98	2650.21
83	2710.626
83.02	2593.323
83.04	2372.781
83.06	2270.229
83.08	2159.684
83.1	2107.905
83.12	1923.403
83.14	2006.162
83.16	1959.079
83.18	1979.165
83.2	2063.957
83.22	2076.15
83.24	1984.571
83.26	1996.302
83.28	1881.155
83.3	1770.612
83.32	1684.718
83.34	1535.31
83.36	1511.6
83.38	1425.132
83.4	1365.277
83.42	1288.161
83.44	1286.425
83.46	1321.587
83.48	1246.98
83.5	1245.687
83.52	1240.221
83.54	1223.377
83.56	1175.853
83.58	1113.146
83.6	1209.328
83.62	1205.379
83.64	1113.276
83.66	1177.669
83.68	1144.837
83.7	1137.877
83.72	1154.292
83.74	1170.409
83.76	1095.601
83.78	1127.684
83.8	1212.291
83.82	1073.847
83.84	1116.444
83.86	1183.85
83.88	1181.27
83.9	1097.582
83.92	1096.914
83.94	1069.659
83.96	1119.578
83.98	1120.721
84	1062.11
84.02	1072.63
84.04	1130.637
84.06	1126.783
84.08	1125.147
84.1	1140.614
84.12	1110.977
84.14	1098.672
84.16	1142.907
84.18	1072.47
84.2	1072.592
84.22	1100.774
84.24	1060.177
84.26	1108.971
84.28	1072.811
84.3	1093.032
84.32	1087.274
84.34	1082.429
84.36	1084.269
84.38	1028.843
84.4	1042.028
84.42	1064.793
84.44	1100.612
84.46	1053.756
84.48	1046.017
84.5	1053.177
84.52	1029.422
84.54	1078.826
84.56	1050.379
84.58	1038.913
84.6	1082.741
84.62	1067.316
84.64	1040.457
84.66	1050.159
84.68	995.1095
84.7	1057.338
84.72	1048.866
84.74	1034.205
84.76	1081.894
84.78	1113.446
84.8	1092.037
84.82	1103.166
84.84	1076.778
84.86	1026.411
84.88	1041.32
84.9	1107.697
84.92	1035.364
84.94	1065.202
84.96	1021.303
84.98	1084.104
85	1095.179
85.02	1017.092
85.04	1060.309
85.06	1054.494
85.08	1040.726
85.1	1078.764
85.12	1040.74
85.14	1073.488
85.16	1057.82
85.18	1042.003
85.2	1033.181
85.22	1049.07
85.24	1060.189
85.26	1108.002
85.28	1048.115
85.3	1024.56
85.32	1083.577
85.34	1077.63
85.36	1051.051
85.38	1048.349
85.4	1062.075
85.42	1021.737
85.44	1002.29
85.46	988.2231
85.48	1062.748
85.5	1057.118
85.52	1071.651
85.54	1026.195
85.56	1043.811
85.58	1027.018
85.6	995.0751
85.62	1052.687
85.64	1001.433
85.66	1042.662
85.68	1044.103
85.7	1009.375
85.72	1021.134
85.74	1034.375
85.76	1055.141
85.78	1042.687
85.8	1021.212
85.82	1018.773
85.84	1005.17
85.86	1050.786
85.88	1007.82
85.9	995.5099
85.92	1024.17
85.94	1053.372
85.96	1085.197
85.98	1048.335
86	999.5336
86.02	1020.89
86.04	996.518
86.06	971.7928
86.08	1014.217
86.1	1026.503
86.12	1043.548
86.14	1042.09
86.16	1065.778
86.18	1029.077
86.2	994.7814
86.22	969.1733
86.24	1006.173
86.26	1058.98
86.28	972.837
86.3	1008.366
86.32	1062.541
86.34	1019.089
86.36	1015.208
86.38	1022.179
86.4	1037.062
86.42	1087.672
86.44	981.4552
86.46	1021.787
86.48	1046.079
86.5	1045.72
86.52	1008.043
86.54	1041.151
86.56	951.3619
86.58	1008.282
86.6	967.9515
86.62	1005.488
86.64	1061.166
86.66	1020.375
86.68	976.6191
86.7	1026.09
86.72	1004.332
86.74	1048.567
86.76	1014.646
86.78	1009.661
86.8	1060.047
86.82	1014.961
86.84	999.2672
86.86	1005.878
86.88	1035.548
86.9	1019.171
86.92	1028.238
86.94	968.1113
86.96	1042.706
86.98	970.1124
87	1018.648
87.02	956.4095
87.04	1013.304
87.06	968.8297
87.08	1035.854
87.1	995.3961
87.12	979.6714
87.14	964.811
87.16	1060.662
87.18	1028.307
87.2	993.2752
87.22	987.9302
87.24	971.7916
87.26	1018.509
87.28	992.5919
87.3	982.6947
87.32	1016.446
87.34	1008.364
87.36	1039.691
87.38	1010.702
87.4	1021.898
87.42	993.4156
87.44	1065.102
87.46	1011.23
87.48	991.4011
87.5	1026.285
87.52	1059.386
87.54	1045.016
87.56	973.7311
87.58	1019.012
87.6	1015.722
87.62	1045.643
87.64	1013.933
87.66	1045.125
87.68	1004.962
87.7	994.2416
87.72	1010.2
87.74	1022.021
87.76	925.9142
87.78	944.7148
87.8	1040.505
87.82	1035.708
87.84	1017.781
87.86	988.2336
87.88	1014.54
87.9	978.1766
87.92	971.6626
87.94	983.2704
87.96	986.5599
87.98	980.899
88	1014.259
88.02	962.8786
88.04	1035.87
88.06	1009.747
88.08	1043.42
88.1	1008.877
88.12	977.4662
88.14	996.8209
88.16	1012.98
88.18	950.1336
88.2	997.601
88.22	1006.38
88.24	1002.361
88.26	1010.007
88.28	1031.987
88.3	1017.969
88.32	965.6733
88.34	1034.466
88.36	1023.396
88.38	1018.283
88.4	1028.86
88.42	1027.497
88.44	966.699
88.46	981.1365
88.48	990.8585
88.5	982.3074
88.52	1035.084
88.54	1008.766
88.56	961.7995
88.58	982.5156
88.6	993.0158
88.62	1013.447
88.64	1029.129
88.66	1002.771
88.68	1018.613
88.7	1016.211
88.72	991.3871
88.74	1015.264
88.76	1016.233
88.78	964.918
88.8	992.8574
88.82	1016.722
88.84	1033.706
88.86	951.2233
88.88	977.7992
88.9	1020.421
88.92	1036.729
88.94	994.8794
88.96	1058.072
88.98	1020.492
89	1021.471
89.02	987.4495
89.04	1003.787
89.06	1007.735
89.08	1014.97
89.1	1008.677
89.12	955.4551
89.14	1019.673
89.16	958.7659
89.18	997.4866
89.2	983.6514
89.22	1030.809
89.24	994.1184
89.26	978.1007
89.28	969.5964
89.3	1045.279
89.32	1022.508
89.34	986.6757
89.36	992.4826
89.38	977.915
89.4	993.2697
89.42	1000.809
89.44	997.0208
89.46	1044.025
89.48	976.375
89.5	1037.788
89.52	923.1169
89.54	958.114
89.56	993.3954
89.58	986.2892
89.6	967.0245
89.62	1049.811
89.64	948.7158
89.66	1013.197
89.68	1007.479
89.7	973.6752
89.72	1008.218
89.74	937.3687
89.76	957.5502
89.78	1000.386
89.8	961.3265
89.82	1030.116
89.84	959.7369
89.86	952.0706
89.88	1015.141
89.9	997.1739
89.92	971.4226
89.94	961.4721
89.96	975.8154
89.98	1002.422
90	989.8712
90.02	986.0454
90.04	976.1539
90.06	959.5444
90.08	1004.868
90.1	1020.842
90.12	1020.756
90.14	1001.559
90.16	970.8865
90.18	986.3227
90.2	992.5229
90.22	962.3835
90.24	986.9676
90.26	954.9186
90.28	1001.016
90.3	1012.044
90.32	1009.842
90.34	949.4216
90.36	991.0816
90.38	995.5585
90.4	979.222
90.42	942.2242
90.44	993.7187
90.46	986.6049
90.48	945.9691
90.5	978.3596
90.52	993.6473
90.54	1019.75
90.56	999.2397
90.58	979.5357
90.6	1015.376
90.62	980.5941
90.64	939.4115
90.66	972.257
90.68	1003.613
90.7	1027.187
90.72	1006.036
90.74	1067.922
90.76	994.3802
90.78	996.0257
90.8	982.2499
90.82	985.7527
90.84	1051.178
90.86	974.2938
90.88	1008.728
90.9	1003.15
90.92	1015.501
90.94	945.9962
90.96	1013.023
90.98	1024.164
91	1025.317
91.02	992.6707
91.04	1004.661
91.06	1005.716
91.08	989.1822
91.1	1009.925
91.12	1006.26
91.14	1011.527
91.16	970.8436
91.18	1004.507
91.2	1053.246
91.22	994.952
91.24	1032.83
91.26	1026.326
91.28	1016.018
91.3	986.3998
91.32	1004.478
91.34	995.4113
91.36	987.3165
91.38	1002.331
91.4	1044.319
91.42	1014.513
91.44	1030.974
91.46	979.8882
91.48	1030.219
91.5	1018.377
91.52	1035.447
91.54	979.3435
91.56	1051.462
91.58	1058.333
91.6	972.7386
91.62	1039.145
91.64	1062.568
91.66	1069.502
91.68	1043.952
91.7	969.2065
91.72	1014.585
91.74	1020.1
91.76	986.8379
91.78	1050.308
91.8	1024.78
91.82	979.3795
91.84	1010.197
91.86	980.9523
91.88	1030.398
91.9	967.8068
91.92	973.3945
91.94	998.7156
91.96	956.9962
91.98	1007.697
92	962.3823
92.02	1038.289
92.04	1075.415
92.06	1068.871
92.08	983.213
92.1	1038.973
92.12	1033.853
92.14	961.5421
92.16	1058.802
92.18	995.2404
92.2	991.8273
92.22	1052.386
92.24	1038.661
92.26	1019.921
92.28	1005.956
92.3	979.269
92.32	971.8595
92.34	1052.08
92.36	1028.275
92.38	960.172
92.4	1018.091
92.42	1012.957
92.44	989.1849
92.46	952.5884
92.48	1016.879
92.5	985.7021
92.52	946.855
92.54	1000.493
92.56	993.6901
92.58	989.0458
92.6	1025.14
92.62	985.8046
92.64	966.6055
92.66	1016.425
92.68	983.5742
92.7	989.4066
92.72	1015.133
92.74	990.0653
92.76	1080.75
92.78	979.1349
92.8	1020.909
92.82	1021.546
92.84	992.871
92.86	1049.774
92.88	1054.495
92.9	1002.247
92.92	1056.397
92.94	1009.088
92.96	969.2423
92.98	975.7892
93	996.3764
93.02	966.1055
93.04	976.0056
93.06	1001.429
93.08	969.7967
93.1	973.0362
93.12	1035.737
93.14	1029.305
93.16	950.8236
93.18	1017.066
93.2	1017.658
93.22	997.6165
93.24	1011.746
93.26	996.3369
93.28	962.7415
93.3	962.1414
93.32	963.4551
93.34	1049.388
93.36	979.4751
93.38	1015.439
93.4	999.7037
93.42	1030.378
93.44	1029.95
93.46	912.7094
93.48	966.7444
93.5	1058.313
93.52	1093.189
93.54	1022.677
93.56	994.8961
93.58	994.5474
93.6	962.4592
93.62	1018.225
93.64	1011.649
93.66	964.772
93.68	1000.352
93.7	1010.666
93.72	1023.797
93.74	1023.754
93.76	1010.535
93.78	968.2192
93.8	959.7196
93.82	1001.067
93.84	1021.025
93.86	988.6053
93.88	1005.662
93.9	1055.486
93.92	994.8212
93.94	999.8018
93.96	1012.896
93.98	990.202
94	999.2111
94.02	997.1628
94.04	1010.358
94.06	1004.184
94.08	1023.786
94.1	962.9197
94.12	1008.502
94.14	972.8002
94.16	997.2055
94.18	995.5723
94.2	1037.463
94.22	986.5085
94.24	959.725
94.26	1013.291
94.28	1024.672
94.3	1005.248
94.32	1065.582
94.34	991.7357
94.36	1043.578
94.38	1065.193
94.4	1032.586
94.42	1032.133
94.44	990.7648
94.46	1019.348
94.48	1059.975
94.5	1068.816
94.52	1026.872
94.54	1043.867
94.56	1086.971
94.58	1050.348
94.6	1002.295
94.62	1072.27
94.64	1029.174
94.66	1097.995
94.68	1071.27
94.7	1099.389
94.72	1062.435
94.74	1074.673
94.76	1077.87
94.78	1146.752
94.8	1103.032
94.82	1088.735
94.84	1102.4
94.86	1025.883
94.88	1025.664
94.9	1072.437
94.92	1043.223
94.94	1168.314
94.96	1148.734
94.98	1138.211
95	1067.673
95.02	1137.727
95.04	1075.121
95.06	1164.71
95.08	1180.29
95.1	1103.384
95.12	1196.843
95.14	1152.238
95.16	1143.352
95.18	1188.112
95.2	1146.725
95.22	1222.203
95.24	1223.09
95.26	1184.207
95.28	1251.15
95.3	1291.586
95.32	1273.611
95.34	1289.929
95.36	1325
95.38	1392.6
95.4	1409.997
95.42	1490.762
95.44	1545.48
95.46	1642.431
95.48	1748.485
95.5	1854.657
95.52	1860.201
95.54	1943.482
95.56	1984.305
95.58	1991.347
95.6	2013.643
95.62	2027.072
95.64	1981.331
95.66	2003.332
95.68	1937.764
95.7	1931.936
95.72	1863.386
95.74	1658.077
95.76	1802.667
95.78	1704.669
95.8	1645.192
95.82	1670.615
95.84	1653.149
95.86	1742.053
95.88	1799.832
95.9	1759.243
95.92	1687.444
95.94	1742.856
95.96	1663.564
95.98	1558.581
96	1557.556
96.02	1533.278
96.04	1450.649
96.06	1381.657
96.08	1392.227
96.1	1379.324
96.12	1277.753
96.14	1314.586
96.16	1260.854
96.18	1238.012
96.2	1248.427
96.22	1247.48
96.24	1216.015
96.26	1205.992
96.28	1156.167
96.3	1146.328
96.32	1165.428
96.34	1128.439
96.36	1128.542
96.38	1161.122
96.4	1153.84
96.42	1208.505
96.44	1099.472
96.46	1164.181
96.48	1121.603
96.5	1132.706
96.52	1153.231
96.54	1043.772
96.56	1075.695
96.58	1085.614
96.6	1128.25
96.62	1112.518
96.64	1010.638
96.66	1064.282
96.68	1053.562
96.7	1105.221
96.72	1049.374
96.74	1030.146
96.76	1063.209
96.78	1084.139
96.8	1030.668
96.82	1023.503
96.84	1058.917
96.86	1031.747
96.88	1043.587
96.9	1047.966
96.92	1037.032
96.94	1016.448
96.96	1018.58
96.98	1018.577
97	1043.959
97.02	1048.039
97.04	1033.782
97.06	1048.508
97.08	1017.239
97.1	1025.249
97.12	1032.039
97.14	991.9678
97.16	1031.69
97.18	1011.8
97.2	1061.201
97.22	970.6781
97.24	1056.249
97.26	955.886
97.28	1026.218
97.3	1061.872
97.32	1043.764
97.34	1061.433
97.36	967.4592
97.38	963.4656
97.4	940.3185
97.42	1047.191
97.44	1046.598
97.46	984.9924
97.48	1023.41
97.5	973.2808
97.52	993.5935
97.54	964.9371
97.56	971.8279
97.58	945.7397
97.6	990.2586
97.62	1006.172
97.64	1005.55
97.66	1012.894
97.68	968.9677
97.7	1002.316
97.72	1001.605
97.74	990.6434
97.76	966.9636
97.78	1035.046
97.8	1025.766
97.82	988.8965
97.84	975.0203
97.86	962.4848
97.88	1056.303
97.9	985.1915
97.92	949.4542
97.94	1006.776
97.96	1018.679
97.98	966.18
98	971.1457
98.02	1059.899
98.04	982.3534
98.06	1043.726
98.08	980.7198
98.1	990.0232
98.12	969.3404
98.14	933.1302
98.16	922.3738
98.18	926.186
98.2	951.1576
98.22	997.918
98.24	977.1118
98.26	976.5257
98.28	986.2171
98.3	975.9004
98.32	998.204
98.34	950.9663
98.36	950.3562
98.38	998.1697
98.4	1004.113
98.42	944.0911
98.44	1033.928
98.46	919.7362
98.48	924.5515
98.5	943.3141
98.52	959.749
98.54	939.753
98.56	962.8046
98.58	1009.841
98.6	992.4242
98.62	921.507
98.64	966.4075
98.66	942.468
98.68	966.2404
98.7	969.4498
98.72	982.3019
98.74	1023.202
98.76	971.3417
98.78	958.7124
98.8	928.4548
98.82	969.3677
98.84	939.0889
98.86	963.9421
98.88	925.1962
98.9	982.0101
98.92	1008.925
98.94	984.4355
98.96	998.4387
98.98	919.6753
99	1000.11
99.02	987.9078
99.04	995.2805
99.06	1008.449
99.08	985.4938
99.1	989.8366
99.12	971.9329
99.14	967.376
99.16	1017.915
99.18	998.784
99.2	954.8541
99.22	1028.325
99.24	936.3121
99.26	940.2205
99.28	930.2898
99.3	922.1071
99.32	1001.965
99.34	931.1193
99.36	927.1014
99.38	922.8077
99.4	954.6864
99.42	951.3957
99.44	989.584
99.46	954.4345
99.48	977.4885
99.5	962.3538
99.52	955.4753
99.54	1003.872
99.56	956.9504
99.58	933.7005
99.6	995.6669
99.62	940.4062
99.64	991.875
99.66	956.613
99.68	1024.584
99.7	1027.395
99.72	959.1168
99.74	934.4345
99.76	961.7977
99.78	975.8947
99.8	975.8983
99.82	975.9383
99.84	1013.883
99.86	998.9682
99.88	968.6426
99.9	957.742
99.92	933.6351
99.94	974.4037
99.96	983.2673
99.98	983.3445
100	933.6041
