TiNbZrCu_11	
2θ, °	Intensity, counts
30	4421.169
30.02	4228.859
30.04	4232.644
30.06	4371.578
30.08	4281.883
30.1	4331.262
30.12	4372.039
30.14	4274.417
30.16	4273.543
30.18	4260.841
30.2	4348.436
30.22	4058.742
30.24	4062.712
30.26	4272.755
30.28	4180.896
30.3	4091.338
30.32	4245.885
30.34	4231.787
30.36	4161.014
30.38	4030.253
30.4	4075.504
30.42	4145.808
30.44	4226.316
30.46	4168.494
30.48	4151.656
30.5	4100.324
30.52	4228.345
30.54	4004.588
30.56	4105.29
30.58	4079.427
30.6	4081.726
30.62	4175.366
30.64	4120.467
30.66	4093.504
30.68	4060.849
30.7	4069.079
30.72	4068.534
30.74	4172.146
30.76	4143.121
30.78	3995.885
30.8	3955.653
30.82	4129.97
30.84	4012.917
30.86	4053.879
30.88	4131.239
30.9	4008.698
30.92	4127.616
30.94	4118.349
30.96	3972.91
30.98	4115.801
31	3849.106
31.02	3989.703
31.04	4091.635
31.06	4152.019
31.08	3994.043
31.1	4045.571
31.12	4018.168
31.14	3913.154
31.16	4117.043
31.18	3977.484
31.2	4023.549
31.22	4227.558
31.24	4192.686
31.26	4139.16
31.28	4197.105
31.3	4147.619
31.32	4172.236
31.34	4124.855
31.36	4296.01
31.38	4206.584
31.4	4246.452
31.42	4207.998
31.44	4071.077
31.46	4211.404
31.48	4066.342
31.5	4054.539
31.52	4101.007
31.54	4021.773
31.56	3981.583
31.58	4003.244
31.6	4028.475
31.62	3863.082
31.64	4020.273
31.66	3937.925
31.68	3921.221
31.7	3959.276
31.72	3913.51
31.74	3739.189
31.76	3744.045
31.78	3753.302
31.8	3820.971
31.82	3762.922
31.84	3820.286
31.86	3684.697
31.88	3695.914
31.9	3784.292
31.92	3716.582
31.94	3666.959
31.96	3680.469
31.98	3839.27
32	3761.34
32.02	3689.963
32.04	3715.532
32.06	3650.858
32.08	3703.426
32.1	3639.079
32.12	3634.619
32.14	3581.313
32.16	3638.93
32.18	3662.574
32.2	3574.575
32.22	3591.454
32.24	3678.689
32.26	3700.12
32.28	3586.562
32.3	3564.808
32.32	3667.732
32.34	3585.859
32.36	3701.664
32.38	3628.317
32.4	3604.151
32.42	3620.801
32.44	3477.905
32.46	3538.641
32.48	3602.39
32.5	3497.159
32.52	3618.292
32.54	3520.727
32.56	3586.215
32.58	3548.128
32.6	3617.799
32.62	3410.666
32.64	3496.973
32.66	3495.549
32.68	3502.063
32.7	3510.165
32.72	3549.282
32.74	3500.95
32.76	3523.053
32.78	3459.551
32.8	3466.833
32.82	3497.515
32.84	3393.116
32.86	3344.078
32.88	3447.362
32.9	3348.588
32.92	3414.594
32.94	3441.991
32.96	3325.873
32.98	3397.565
33	3377.138
33.02	3409.483
33.04	3460.433
33.06	3501.905
33.08	3429.654
33.1	3459.439
33.12	3476.88
33.14	3391.735
33.16	3372.347
33.18	3335.146
33.2	3275.954
33.22	3373.085
33.24	3283.401
33.26	3284.041
33.28	3386.093
33.3	3319.669
33.32	3396.872
33.34	3366.971
33.36	3331.848
33.38	3284.585
33.4	3349.679
33.42	3352.982
33.44	3287.061
33.46	3284.683
33.48	3242.619
33.5	3278.476
33.52	3321.162
33.54	3289.226
33.56	3310.339
33.58	3237.229
33.6	3308.441
33.62	3320.334
33.64	3296.959
33.66	3242.154
33.68	3225.906
33.7	3157.149
33.72	3169.946
33.74	3325.209
33.76	3222.817
33.78	3183.444
33.8	3302.126
33.82	3192.656
33.84	3172.292
33.86	3222.097
33.88	3226.131
33.9	3228.153
33.92	3108.662
33.94	3209.313
33.96	3138.687
33.98	3207.765
34	3114.746
34.02	3157.668
34.04	3033.387
34.06	3127.809
34.08	3182.152
34.1	3146.608
34.12	3083.633
34.14	3184.948
34.16	3199.303
34.18	3118.107
34.2	3081.801
34.22	3011.448
34.24	3102.184
34.26	3069.185
34.28	3021.332
34.3	3119.662
34.32	2991.92
34.34	3095.715
34.36	3046.282
34.38	3074.584
34.4	3015.295
34.42	3103.656
34.44	3039.446
34.46	3041.274
34.48	3034.062
34.5	3148.795
34.52	3014.167
34.54	3163.508
34.56	3073.699
34.58	3013.686
34.6	3093.33
34.62	3007.526
34.64	3022.586
34.66	3060.162
34.68	3063.528
34.7	3064.645
34.72	2984.967
34.74	3077.646
34.76	3104.824
34.78	3015.204
34.8	3024.123
34.82	3071.116
34.84	3002.842
34.86	3032.125
34.88	3023.658
34.9	3058.885
34.92	2985.901
34.94	3061.517
34.96	2917.201
34.98	2977.48
35	2977.579
35.02	2948.307
35.04	2870.023
35.06	2959.03
35.08	2939.599
35.1	2881.937
35.12	2879.104
35.14	2914.939
35.16	2853.337
35.18	2886.841
35.2	2905.241
35.22	2873.857
35.24	2957.226
35.26	2926.122
35.28	2877.473
35.3	2851.556
35.32	2877.527
35.34	2825.515
35.36	2891.2
35.38	2835.776
35.4	2873.911
35.42	2890.857
35.44	2863.205
35.46	2855.018
35.48	2833.01
35.5	2769.79
35.52	2824.428
35.54	2754.976
35.56	2831.704
35.58	2776.486
35.6	2878.943
35.62	2846.413
35.64	2755.199
35.66	2794.927
35.68	2744.071
35.7	2659.027
35.72	2657.649
35.74	2766.223
35.76	2794.029
35.78	2670.286
35.8	2699.328
35.82	2787.057
35.84	2777.693
35.86	2821.838
35.88	2763.895
35.9	2736.698
35.92	2889.415
35.94	2720.413
35.96	2744.708
35.98	2703.927
36	2687.273
36.02	2660.144
36.04	2640.678
36.06	2689.524
36.08	2674.582
36.1	2669.672
36.12	2588.918
36.14	2782.137
36.16	2665.133
36.18	2632.58
36.2	2700.7
36.22	2658.901
36.24	2638.698
36.26	2555.686
36.28	2691.794
36.3	2621.205
36.32	2638.036
36.34	2627.899
36.36	2696.433
36.38	2663.247
36.4	2625.498
36.42	2564.677
36.44	2699.464
36.46	2734.44
36.48	2731.871
36.5	2596.118
36.52	2573.412
36.54	2604.683
36.56	2548.279
36.58	2527.656
36.6	2568.438
36.62	2560.317
36.64	2454.642
36.66	2555.306
36.68	2534.649
36.7	2589.627
36.72	2554.109
36.74	2637.559
36.76	2580.583
36.78	2592.51
36.8	2597.958
36.82	2502.952
36.84	2568.088
36.86	2596.529
36.88	2594.966
36.9	2584.114
36.92	2491.875
36.94	2539.892
36.96	2618.617
36.98	2531.331
37	2567.085
37.02	2563.629
37.04	2586.804
37.06	2583.283
37.08	2569.989
37.1	2575.365
37.12	2595.118
37.14	2603.986
37.16	2548.252
37.18	2609.511
37.2	2572.683
37.22	2495.008
37.24	2514.569
37.26	2552.42
37.28	2665.47
37.3	2591.037
37.32	2724.179
37.34	2732.941
37.36	2657.209
37.38	2628.98
37.4	2700.401
37.42	2600.573
37.44	2636.116
37.46	2712.703
37.48	2642.623
37.5	2647.515
37.52	2625.002
37.54	2661.321
37.56	2707.752
37.58	2669.91
37.6	2800.781
37.62	2721.729
37.64	2665.256
37.66	2661.776
37.68	2643.116
37.7	2741.741
37.72	2683.059
37.74	2716.154
37.76	2771.333
37.78	2693.171
37.8	2718.565
37.82	2762.536
37.84	2813.277
37.86	2831.642
37.88	2818.318
37.9	2852.362
37.92	2811.913
37.94	2785.195
37.96	2896.019
37.98	2853.031
38	2846.873
38.02	2995.174
38.04	3044.705
38.06	3022.752
38.08	3050.523
38.1	3058.356
38.12	3159.522
38.14	3110.127
38.16	3172.43
38.18	3343.568
38.2	3297.336
38.22	3349.792
38.24	3509.901
38.26	3519.365
38.28	3539.481
38.3	3715.999
38.32	3763.24
38.34	3984.574
38.36	4010.181
38.38	4299.711
38.4	4520.281
38.42	4776.429
38.44	5186.573
38.46	5680.813
38.48	6227.102
38.5	6851.992
38.52	7484.596
38.54	8739.295
38.56	10187.1
38.58	12871.55
38.6	18095.68
38.62	27941.17
38.64	43968.63
38.66	56587.32
38.68	51009.5
38.7	36895.33
38.72	29577.49
38.74	31013.2
38.76	34156.28
38.78	28709.43
38.8	20043.89
38.82	13643.6
38.84	9821.444
38.86	7849.973
38.88	6490.698
38.9	5852.118
38.92	5323.712
38.94	4952.481
38.96	4494.087
38.98	4299.651
39	4080.284
39.02	3838.666
39.04	3725.846
39.06	3692.908
39.08	3445.93
39.1	3540.437
39.12	3441.181
39.14	3290.904
39.16	3172.454
39.18	3107.099
39.2	3093.709
39.22	3095.314
39.24	2924.429
39.26	2875.81
39.28	2933.045
39.3	2844.555
39.32	2893.092
39.34	2813.428
39.36	2696.43
39.38	2844.727
39.4	2672.439
39.42	2649.942
39.44	2679.881
39.46	2654.34
39.48	2654.033
39.5	2641.266
39.52	2551.181
39.54	2603.446
39.56	2576.408
39.58	2573.828
39.6	2509.249
39.62	2509.87
39.64	2529.795
39.66	2615.358
39.68	2489.933
39.7	2523.728
39.72	2605.268
39.74	2588.179
39.76	2583.735
39.78	2492.212
39.8	2399.24
39.82	2535.095
39.84	2517.415
39.86	2499.995
39.88	2469.367
39.9	2410.095
39.92	2455.963
39.94	2437.698
39.96	2456.468
39.98	2370.268
40	2437.65
40.02	2396.486
40.04	2413.845
40.06	2401.756
40.08	2358.129
40.1	2412.605
40.12	2252.335
40.14	2328.478
40.16	2369.502
40.18	2302.634
40.2	2444.247
40.22	2287.384
40.24	2262.133
40.26	2242.174
40.28	2384.06
40.3	2296.15
40.32	2269.812
40.34	2299.312
40.36	2295.329
40.38	2261.638
40.4	2255.288
40.42	2299.892
40.44	2199.262
40.46	2239.601
40.48	2307.104
40.5	2276.638
40.52	2270.636
40.54	2245.373
40.56	2279.427
40.58	2228.79
40.6	2357.431
40.62	2316.838
40.64	2248.144
40.66	2181.508
40.68	2251.911
40.7	2228.578
40.72	2233.642
40.74	2207.853
40.76	2150.141
40.78	2191.795
40.8	2231.245
40.82	2129.971
40.84	2230.914
40.86	2196.247
40.88	2156.381
40.9	2186.72
40.92	2111.837
40.94	2080.428
40.96	2145.026
40.98	2194.269
41	2158.034
41.02	2220.242
41.04	2140.327
41.06	2087.644
41.08	2130.215
41.1	2152.557
41.12	2133.443
41.14	2074.304
41.16	2061.603
41.18	2188.254
41.2	2197.786
41.22	2198.983
41.24	2167.713
41.26	2097.577
41.28	2089.58
41.3	2117.268
41.32	2032.349
41.34	2124.097
41.36	2097.761
41.38	2064.051
41.4	2061.281
41.42	2106.739
41.44	2070.408
41.46	2150.514
41.48	2063.27
41.5	2116.716
41.52	2114.261
41.54	2074.339
41.56	2155.675
41.58	2093.442
41.6	2079.379
41.62	1991.9
41.64	2034.617
41.66	2195.211
41.68	2052.501
41.7	2059.974
41.72	2020
41.74	2078.495
41.76	2021.792
41.78	2061.09
41.8	2040.182
41.82	2007.968
41.84	2063.507
41.86	2103.472
41.88	2077.173
41.9	2051.711
41.92	2049.489
41.94	2109.928
41.96	2056.611
41.98	2006.282
42	2081.974
42.02	2051.396
42.04	1947.991
42.06	2045.605
42.08	2058.506
42.1	1990.021
42.12	2006.174
42.14	2077.022
42.16	2146.889
42.18	1990.35
42.2	2065.068
42.22	2105
42.24	2075.256
42.26	2096.354
42.28	1987.199
42.3	1915.87
42.32	2049.397
42.34	2029.862
42.36	2080.817
42.38	2037.982
42.4	1987.084
42.42	1953.599
42.44	2066.076
42.46	2010.378
42.48	1936.837
42.5	2023.819
42.52	2056.929
42.54	2061.993
42.56	1948.156
42.58	1962.407
42.6	1959.803
42.62	1974.833
42.64	2019.767
42.66	1962.851
42.68	1979.035
42.7	1971.933
42.72	2006.005
42.74	1934.248
42.76	1985.154
42.78	1994.704
42.8	2057.042
42.82	2015.908
42.84	1944.813
42.86	1951.108
42.88	1980.96
42.9	1896.966
42.92	1965.528
42.94	1937.619
42.96	1993.177
42.98	1927.812
43	1882.656
43.02	1937.035
43.04	2033.143
43.06	1953.52
43.08	1981.072
43.1	1946.218
43.12	1939.291
43.14	1953.031
43.16	1914.77
43.18	1946.804
43.2	1900.03
43.22	1935.085
43.24	1971.855
43.26	1961.294
43.28	1977.191
43.3	1953.947
43.32	1927.061
43.34	1903.691
43.36	1922.484
43.38	1929.257
43.4	1987.781
43.42	1861.842
43.44	1959.556
43.46	1887.736
43.48	1873.723
43.5	1865.351
43.52	1882.595
43.54	1861.238
43.56	1952.424
43.58	1925.628
43.6	1942.322
43.62	1834.696
43.64	1894.953
43.66	1940.069
43.68	1924.497
43.7	1899.67
43.72	1848.926
43.74	1882.584
43.76	1925.661
43.78	1932.929
43.8	1818.453
43.82	1843.968
43.84	1864.939
43.86	1908.394
43.88	1938.781
43.9	1858.43
43.92	1836.036
43.94	1858.492
43.96	1835.932
43.98	1943.417
44	1992.313
44.02	1870.958
44.04	1876.792
44.06	1867.266
44.08	1825.254
44.1	1913.683
44.12	1877.818
44.14	1862.992
44.16	1924.649
44.18	1873.172
44.2	1854.086
44.22	1803.293
44.24	1843.986
44.26	1775.171
44.28	1842.856
44.3	1806.418
44.32	1828.12
44.34	1856.789
44.36	1822.076
44.38	1839.474
44.4	1800.991
44.42	1908.833
44.44	1844.002
44.46	1864.384
44.48	1785.307
44.5	1815.312
44.52	1923.443
44.54	1889.508
44.56	1800.856
44.58	1888.97
44.6	1830.62
44.62	1795.337
44.64	1830.375
44.66	1825.135
44.68	1753.142
44.7	1859.471
44.72	1816.401
44.74	1733.367
44.76	1799.02
44.78	1825.622
44.8	1791.496
44.82	1747.119
44.84	1840.327
44.86	1801.337
44.88	1817.751
44.9	1799.336
44.92	1798.225
44.94	1859.796
44.96	1800.773
44.98	1708.808
45	1701.864
45.02	1834.723
45.04	1806.557
45.06	1830.003
45.08	1829.136
45.1	1824.012
45.12	1787.18
45.14	1776.818
45.16	1744.695
45.18	1806.677
45.2	1804.142
45.22	1840.412
45.24	1790.55
45.26	1825.169
45.28	1816.522
45.3	1721.995
45.32	1837.223
45.34	1796.543
45.36	1851.135
45.38	1829.386
45.4	1791.573
45.42	1785.276
45.44	1795.066
45.46	1831.161
45.48	1721.004
45.5	1796.138
45.52	1759.189
45.54	1767.796
45.56	1735.929
45.58	1730.342
45.6	1771.344
45.62	1704.913
45.64	1839.179
45.66	1726.233
45.68	1768.737
45.7	1789.471
45.72	1725.67
45.74	1796.745
45.76	1758.185
45.78	1753.482
45.8	1758.41
45.82	1718.009
45.84	1714.034
45.86	1774.36
45.88	1816.067
45.9	1679.644
45.92	1719.435
45.94	1680.496
45.96	1674.443
45.98	1760.063
46	1711.378
46.02	1732.883
46.04	1710.984
46.06	1706.38
46.08	1698.423
46.1	1712.239
46.12	1667.534
46.14	1829.084
46.16	1716.906
46.18	1768.512
46.2	1744.059
46.22	1756.235
46.24	1717.36
46.26	1680.222
46.28	1685.3
46.3	1750.154
46.32	1822.405
46.34	1691.604
46.36	1749.682
46.38	1739.715
46.4	1695.938
46.42	1716.47
46.44	1753.254
46.46	1683.87
46.48	1716.385
46.5	1691.145
46.52	1696.791
46.54	1739.474
46.56	1727.368
46.58	1682.262
46.6	1697.503
46.62	1731.979
46.64	1694.44
46.66	1691.902
46.68	1672.813
46.7	1676.153
46.72	1656.445
46.74	1677.707
46.76	1724.928
46.78	1708.779
46.8	1637.199
46.82	1688.084
46.84	1773.284
46.86	1745.023
46.88	1701.841
46.9	1711.555
46.92	1772.921
46.94	1699.174
46.96	1662.061
46.98	1640.769
47	1699.63
47.02	1645.662
47.04	1696.262
47.06	1692.964
47.08	1667.065
47.1	1727.299
47.12	1678.455
47.14	1667.891
47.16	1634.906
47.18	1676.069
47.2	1698.28
47.22	1575.397
47.24	1635.863
47.26	1611.135
47.28	1643.494
47.3	1625.958
47.32	1640.829
47.34	1658.668
47.36	1671.22
47.38	1679.035
47.4	1643.26
47.42	1659.662
47.44	1644.041
47.46	1619.052
47.48	1674.173
47.5	1689.372
47.52	1586.678
47.54	1642.852
47.56	1660.453
47.58	1666.137
47.6	1611.063
47.62	1597.707
47.64	1626.974
47.66	1661.098
47.68	1609.08
47.7	1596.685
47.72	1684.949
47.74	1665.623
47.76	1686.735
47.78	1668.278
47.8	1633.705
47.82	1589.269
47.84	1593.796
47.86	1603.642
47.88	1582.735
47.9	1604.678
47.92	1632.298
47.94	1644.586
47.96	1635.312
47.98	1617.053
48	1581.771
48.02	1616.147
48.04	1605.151
48.06	1608.631
48.08	1687.584
48.1	1620.145
48.12	1614.405
48.14	1597.846
48.16	1545.571
48.18	1627.584
48.2	1616.235
48.22	1615.811
48.24	1549.473
48.26	1603.023
48.28	1651.5
48.3	1613.375
48.32	1610.439
48.34	1603.198
48.36	1589.208
48.38	1598.078
48.4	1594.841
48.42	1543.304
48.44	1608.901
48.46	1517.55
48.48	1584.278
48.5	1619.407
48.52	1629.21
48.54	1587.272
48.56	1550.51
48.58	1608.783
48.6	1641.817
48.62	1616.587
48.64	1580.751
48.66	1577.656
48.68	1539.562
48.7	1566.917
48.72	1546.885
48.74	1554.661
48.76	1444.8
48.78	1603.442
48.8	1580.929
48.82	1596.454
48.84	1527.198
48.86	1553.895
48.88	1543.039
48.9	1562.193
48.92	1611.305
48.94	1572.416
48.96	1502.613
48.98	1643.215
49	1618.797
49.02	1648.136
49.04	1579.319
49.06	1579.356
49.08	1544.739
49.1	1588.535
49.12	1654.495
49.14	1556.936
49.16	1581.051
49.18	1549.497
49.2	1577.766
49.22	1612.006
49.24	1619.11
49.26	1477.479
49.28	1504.052
49.3	1477.695
49.32	1554
49.34	1556.926
49.36	1573.297
49.38	1629.672
49.4	1585.301
49.42	1561.236
49.44	1589.821
49.46	1628.051
49.48	1610.452
49.5	1543.361
49.52	1631.233
49.54	1584.922
49.56	1628.697
49.58	1637.459
49.6	1596.632
49.62	1552.199
49.64	1558.969
49.66	1604.667
49.68	1547.06
49.7	1617.461
49.72	1578.246
49.74	1631.581
49.76	1537.875
49.78	1537.089
49.8	1581.693
49.82	1508.91
49.84	1571.738
49.86	1545.502
49.88	1524.49
49.9	1639.165
49.92	1467.532
49.94	1539.575
49.96	1631.764
49.98	1575.357
50	1617.494
50.02	1625.798
50.04	1613.596
50.06	1590.919
50.08	1618.836
50.1	1578.5
50.12	1569.738
50.14	1639.853
50.16	1606.842
50.18	1614.492
50.2	1562.19
50.22	1588.147
50.24	1628.171
50.26	1653.936
50.28	1663.745
50.3	1631.565
50.32	1655.964
50.34	1675.42
50.36	1728.127
50.38	1701.576
50.4	1621.227
50.42	1717.403
50.44	1644.038
50.46	1698.897
50.48	1770.399
50.5	1733.933
50.52	1779.041
50.54	1778.394
50.56	1717.175
50.58	1762.792
50.6	1731.198
50.62	1696.033
50.64	1737.374
50.66	1744.274
50.68	1804.339
50.7	1767.687
50.72	1847.172
50.74	1769.921
50.76	1750.419
50.78	1829.275
50.8	1753.786
50.82	1739.966
50.84	1682.906
50.86	1693.048
50.88	1751.178
50.9	1742.158
50.92	1692.604
50.94	1690.1
50.96	1724.468
50.98	1608.839
51	1654.37
51.02	1605.26
51.04	1540.676
51.06	1672.452
51.08	1646.119
51.1	1624.291
51.12	1553.094
51.14	1620.214
51.16	1591.957
51.18	1668.079
51.2	1640.43
51.22	1561.089
51.24	1620.266
51.26	1560.203
51.28	1620.102
51.3	1611.934
51.32	1514.393
51.34	1573.722
51.36	1480.031
51.38	1589.285
51.4	1503.846
51.42	1652.179
51.44	1553.018
51.46	1547.56
51.48	1512.058
51.5	1543.331
51.52	1505.795
51.54	1528.622
51.56	1526.315
51.58	1475.422
51.6	1532.375
51.62	1525.741
51.64	1497.022
51.66	1488.896
51.68	1541.403
51.7	1532.752
51.72	1600.233
51.74	1515.222
51.76	1510.768
51.78	1478.979
51.8	1456.278
51.82	1458.626
51.84	1481.003
51.86	1526.49
51.88	1494.922
51.9	1472.458
51.92	1521.025
51.94	1481.305
51.96	1522.449
51.98	1530.271
52	1469.471
52.02	1495.24
52.04	1485.035
52.06	1591.195
52.08	1545.332
52.1	1471.955
52.12	1529.587
52.14	1484.86
52.16	1473.614
52.18	1512.667
52.2	1528.344
52.22	1528.952
52.24	1497.339
52.26	1512.944
52.28	1497.24
52.3	1511.204
52.32	1475.349
52.34	1558.162
52.36	1569.743
52.38	1499.994
52.4	1484.745
52.42	1492.101
52.44	1470.899
52.46	1500.994
52.48	1580.659
52.5	1481.102
52.52	1468.025
52.54	1476.323
52.56	1555.755
52.58	1536.11
52.6	1577.962
52.62	1465.631
52.64	1491.601
52.66	1529.548
52.68	1486.997
52.7	1534.137
52.72	1529.713
52.74	1526.542
52.76	1544.549
52.78	1495.151
52.8	1519.764
52.82	1494.515
52.84	1516.111
52.86	1548.809
52.88	1501.834
52.9	1480.49
52.92	1539.872
52.94	1498.115
52.96	1516.938
52.98	1450.416
53	1472.055
53.02	1494.658
53.04	1509.256
53.06	1524.278
53.08	1528.06
53.1	1518.395
53.12	1559.448
53.14	1534.898
53.16	1444.457
53.18	1545.025
53.2	1451.279
53.22	1475.668
53.24	1471.212
53.26	1529.418
53.28	1532.776
53.3	1553.987
53.32	1492.829
53.34	1513.766
53.36	1507.139
53.38	1484.124
53.4	1432.659
53.42	1444.248
53.44	1540.56
53.46	1536.82
53.48	1535.793
53.5	1527.793
53.52	1491.958
53.54	1477.362
53.56	1481.447
53.58	1454.762
53.6	1542.56
53.62	1426.036
53.64	1378.827
53.66	1483.301
53.68	1509.141
53.7	1465.013
53.72	1529.137
53.74	1541.833
53.76	1495.768
53.78	1506.843
53.8	1472.493
53.82	1477.957
53.84	1582.63
53.86	1454.524
53.88	1422.182
53.9	1479.367
53.92	1447.121
53.94	1510.088
53.96	1582.506
53.98	1506.313
54	1523.752
54.02	1550.084
54.04	1558.786
54.06	1483.847
54.08	1517.044
54.1	1507.18
54.12	1473.831
54.14	1494.639
54.16	1475.909
54.18	1486.994
54.2	1472.649
54.22	1564.197
54.24	1490.81
54.26	1510.977
54.28	1461.783
54.3	1464.449
54.32	1487.729
54.34	1484.608
54.36	1464.957
54.38	1481.578
54.4	1481.245
54.42	1474.376
54.44	1527.995
54.46	1441.652
54.48	1469.435
54.5	1502.463
54.52	1515.236
54.54	1451.674
54.56	1539.287
54.58	1483.751
54.6	1519.995
54.62	1479.223
54.64	1440.883
54.66	1538.892
54.68	1500.926
54.7	1533.375
54.72	1482.578
54.74	1484.315
54.76	1452.661
54.78	1556.067
54.8	1520.147
54.82	1522.118
54.84	1530.382
54.86	1557.401
54.88	1474.114
54.9	1488.12
54.92	1507.052
54.94	1532.568
54.96	1541.519
54.98	1594.072
55	1498.927
55.02	1571.295
55.04	1629.083
55.06	1574.162
55.08	1545.417
55.1	1597.574
55.12	1577.606
55.14	1539.782
55.16	1579.384
55.18	1570.579
55.2	1634.743
55.22	1598.039
55.24	1599.571
55.26	1537.501
55.28	1643.005
55.3	1637.313
55.32	1652.996
55.34	1677.731
55.36	1682.753
55.38	1626.36
55.4	1692.946
55.42	1720.263
55.44	1729.468
55.46	1823.854
55.48	1739.349
55.5	1741.018
55.52	1800.967
55.54	1830.313
55.56	1853.806
55.58	1955.15
55.6	1923.778
55.62	1997.637
55.64	2068.531
55.66	2022.754
55.68	2228.377
55.7	2248.396
55.72	2408.14
55.74	2536.36
55.76	2754.422
55.78	3147.985
55.8	3740.667
55.82	4133.777
55.84	4417.406
55.86	4488.797
55.88	4364.854
55.9	4359.633
55.92	4104.527
55.94	3964.723
55.96	3841.177
55.98	3817.258
56	3529.404
56.02	3490.998
56.04	3235.729
56.06	3124.01
56.08	2921.957
56.1	2587.881
56.12	2472.624
56.14	2323.131
56.16	2249.441
56.18	2140.654
56.2	2141.84
56.22	2041.646
56.24	2020.524
56.26	1895.098
56.28	1920.263
56.3	1927.779
56.32	1818.833
56.34	1808.409
56.36	1753.684
56.38	1702.447
56.4	1755.026
56.42	1707.386
56.44	1711.649
56.46	1762.578
56.48	1684.683
56.5	1613.657
56.52	1622.273
56.54	1677.816
56.56	1651.266
56.58	1656.199
56.6	1597.693
56.62	1608.507
56.64	1590.817
56.66	1563.223
56.68	1574.218
56.7	1620.215
56.72	1569.734
56.74	1501.049
56.76	1652.511
56.78	1606.853
56.8	1479.953
56.82	1479.635
56.84	1489.685
56.86	1453.754
56.88	1506.209
56.9	1464.149
56.92	1475.578
56.94	1456.403
56.96	1530.841
56.98	1482.353
57	1416.83
57.02	1508.298
57.04	1411.006
57.06	1485.128
57.08	1440.02
57.1	1472.853
57.12	1511.124
57.14	1524.391
57.16	1460.514
57.18	1457.034
57.2	1401.153
57.22	1395.392
57.24	1497.311
57.26	1454.22
57.28	1458.609
57.3	1501.174
57.32	1427.916
57.34	1457.649
57.36	1410.775
57.38	1446.443
57.4	1415.149
57.42	1466.182
57.44	1423.481
57.46	1413.289
57.48	1472.76
57.5	1419.673
57.52	1460.825
57.54	1434.15
57.56	1477.368
57.58	1408.93
57.6	1418.856
57.62	1481.615
57.64	1457.934
57.66	1382.905
57.68	1381.729
57.7	1464.857
57.72	1524.956
57.74	1445.305
57.76	1435.18
57.78	1428.518
57.8	1375.045
57.82	1465.664
57.84	1437.998
57.86	1421.667
57.88	1405.9
57.9	1376.498
57.92	1393.585
57.94	1365.792
57.96	1486.21
57.98	1425.066
58	1444.781
58.02	1449.629
58.04	1473.907
58.06	1445.469
58.08	1430.982
58.1	1401.724
58.12	1444.152
58.14	1454.882
58.16	1364.622
58.18	1417.92
58.2	1512.448
58.22	1411.757
58.24	1404.664
58.26	1379.594
58.28	1441.336
58.3	1402.192
58.32	1368.966
58.34	1438.634
58.36	1469.839
58.38	1459.994
58.4	1509.367
58.42	1436.262
58.44	1387.689
58.46	1482.996
58.48	1358.458
58.5	1392.307
58.52	1458.046
58.54	1447.387
58.56	1430.386
58.58	1466.246
58.6	1489.979
58.62	1444.177
58.64	1447.736
58.66	1404.086
58.68	1431.925
58.7	1431.097
58.72	1423.625
58.74	1452.809
58.76	1345.212
58.78	1398.659
58.8	1337.399
58.82	1436.201
58.84	1446.116
58.86	1420.702
58.88	1442.111
58.9	1400.61
58.92	1451.205
58.94	1452.291
58.96	1404.217
58.98	1418.615
59	1351.258
59.02	1407.101
59.04	1436.836
59.06	1366.027
59.08	1455.265
59.1	1356.568
59.12	1377.617
59.14	1474.79
59.16	1410.119
59.18	1443.959
59.2	1412.205
59.22	1417.622
59.24	1413.672
59.26	1358.315
59.28	1480.839
59.3	1445.412
59.32	1395.305
59.34	1456.532
59.36	1345.129
59.38	1327.939
59.4	1442.315
59.42	1407.574
59.44	1399.871
59.46	1434.988
59.48	1365.621
59.5	1435.778
59.52	1430.699
59.54	1403.308
59.56	1370.085
59.58	1377.839
59.6	1305.412
59.62	1350.819
59.64	1382.001
59.66	1439.908
59.68	1362.095
59.7	1373.065
59.72	1369.583
59.74	1452.514
59.76	1361.97
59.78	1436.186
59.8	1375.319
59.82	1304.734
59.84	1382.729
59.86	1477.641
59.88	1445.359
59.9	1447.574
59.92	1422.198
59.94	1404.623
59.96	1406.472
59.98	1384.677
60	1424.768
60.02	1365.874
60.04	1439.322
60.06	1439.885
60.08	1375.299
60.1	1337.338
60.12	1372.021
60.14	1437.432
60.16	1330.686
60.18	1373.134
60.2	1357.858
60.22	1376.156
60.24	1403.63
60.26	1431.756
60.28	1396.317
60.3	1318.53
60.32	1418.558
60.34	1417.279
60.36	1364.572
60.38	1350.683
60.4	1414.888
60.42	1408.056
60.44	1382.888
60.46	1442.462
60.48	1384.236
60.5	1425.143
60.52	1350.658
60.54	1397.179
60.56	1415.253
60.58	1384.953
60.6	1422.795
60.62	1413.916
60.64	1403.23
60.66	1349.591
60.68	1356.479
60.7	1338.738
60.72	1372.599
60.74	1372.143
60.76	1307.078
60.78	1415.609
60.8	1406.928
60.82	1399.636
60.84	1425.997
60.86	1403.327
60.88	1373.426
60.9	1395.598
60.92	1400.888
60.94	1469.356
60.96	1423.914
60.98	1382.69
61	1384.382
61.02	1307.855
61.04	1395.624
61.06	1411.189
61.08	1402.94
61.1	1415.258
61.12	1452.844
61.14	1371.209
61.16	1404.622
61.18	1452.416
61.2	1388.635
61.22	1299.837
61.24	1405.034
61.26	1417.836
61.28	1464.625
61.3	1423.512
61.32	1333.527
61.34	1380.669
61.36	1433.298
61.38	1406.381
61.4	1366.679
61.42	1359.771
61.44	1379.546
61.46	1349.146
61.48	1321.618
61.5	1394.344
61.52	1391.581
61.54	1363.271
61.56	1421.28
61.58	1406.357
61.6	1406.893
61.62	1385.382
61.64	1418.659
61.66	1291.12
61.68	1385.285
61.7	1355.823
61.72	1414.369
61.74	1401.256
61.76	1327.743
61.78	1375.925
61.8	1342.201
61.82	1379.701
61.84	1326.602
61.86	1399.381
61.88	1350.553
61.9	1398.901
61.92	1423.263
61.94	1416.434
61.96	1380.956
61.98	1390.13
62	1387.121
62.02	1386.891
62.04	1397.217
62.06	1361.776
62.08	1376.522
62.1	1429.345
62.12	1345.954
62.14	1357.414
62.16	1407.041
62.18	1391.623
62.2	1376.938
62.22	1418.284
62.24	1365.829
62.26	1337.197
62.28	1406.719
62.3	1360.803
62.32	1403.08
62.34	1345.791
62.36	1408.014
62.38	1415.99
62.4	1375.062
62.42	1371.226
62.44	1357.658
62.46	1478.968
62.48	1444.245
62.5	1465.148
62.52	1378.868
62.54	1354.504
62.56	1363.787
62.58	1420.247
62.6	1428.51
62.62	1378.659
62.64	1385.458
62.66	1331.07
62.68	1447.782
62.7	1345.252
62.72	1349.079
62.74	1351.457
62.76	1432.874
62.78	1354.091
62.8	1395.74
62.82	1343.376
62.84	1403.289
62.86	1341.854
62.88	1395.878
62.9	1489.437
62.92	1371.013
62.94	1331.622
62.96	1387.344
62.98	1401.624
63	1354.417
63.02	1381.342
63.04	1415.014
63.06	1343.9
63.08	1359.632
63.1	1340.538
63.12	1364.805
63.14	1379.993
63.16	1356.053
63.18	1382.051
63.2	1312.123
63.22	1309.923
63.24	1423.289
63.26	1369.682
63.28	1343.772
63.3	1383.209
63.32	1377.127
63.34	1298.138
63.36	1352.155
63.38	1418.216
63.4	1352.247
63.42	1378.229
63.44	1365.078
63.46	1331.521
63.48	1415.015
63.5	1367.609
63.52	1409.324
63.54	1364.813
63.56	1397.626
63.58	1374.661
63.6	1424.709
63.62	1396.469
63.64	1350.798
63.66	1390.34
63.68	1407.982
63.7	1411.432
63.72	1352.144
63.74	1447.681
63.76	1382.898
63.78	1348.13
63.8	1342.137
63.82	1326.165
63.84	1371.82
63.86	1390.739
63.88	1372.698
63.9	1303.699
63.92	1373.061
63.94	1371.631
63.96	1354.25
63.98	1335.059
64	1312.339
64.02	1351.56
64.04	1317.147
64.06	1423.816
64.08	1380.935
64.1	1386.053
64.12	1374.407
64.14	1396.084
64.16	1400.733
64.18	1433.244
64.2	1384.603
64.22	1378.701
64.24	1356.469
64.26	1317.916
64.28	1363.678
64.3	1386.445
64.32	1359.656
64.34	1400.634
64.36	1371.125
64.38	1374.291
64.4	1339.192
64.42	1355.89
64.44	1349.251
64.46	1397.176
64.48	1368.136
64.5	1360.225
64.52	1442.56
64.54	1404.269
64.56	1334.846
64.58	1377.918
64.6	1359.924
64.62	1366.004
64.64	1415.492
64.66	1418.841
64.68	1374.285
64.7	1315.99
64.72	1409.679
64.74	1405.671
64.76	1361.881
64.78	1359.546
64.8	1351.517
64.82	1326.419
64.84	1387.868
64.86	1492.18
64.88	1382.886
64.9	1374.375
64.92	1423.899
64.94	1421.358
64.96	1347.646
64.98	1371.016
65	1478.442
65.02	1447.323
65.04	1377.547
65.06	1432.788
65.08	1441.942
65.1	1403.237
65.12	1482.78
65.14	1391.135
65.16	1477.414
65.18	1443.274
65.2	1398.98
65.22	1496.917
65.24	1555.15
65.26	1524.023
65.28	1594.031
65.3	1625.994
65.32	1623.904
65.34	1623.387
65.36	1703.202
65.38	1631.466
65.4	1711.382
65.42	1776.845
65.44	1820.569
65.46	1756.287
65.48	1833.726
65.5	1849.807
65.52	1793.806
65.54	1783.421
65.56	1831.074
65.58	1818.198
65.6	1788.772
65.62	1805.982
65.64	1834.921
65.66	1801.136
65.68	1749.349
65.7	1730.714
65.72	1741.956
65.74	1744.497
65.76	1643.32
65.78	1703.278
65.8	1698.689
65.82	1676.146
65.84	1613.021
65.86	1625.47
65.88	1590.319
65.9	1535.172
65.92	1545.582
65.94	1469.961
65.96	1534.814
65.98	1462.554
66	1431.753
66.02	1455.159
66.04	1466.981
66.06	1407.789
66.08	1394.749
66.1	1373.106
66.12	1413.126
66.14	1470.212
66.16	1442.382
66.18	1400.112
66.2	1430.029
66.22	1395.573
66.24	1353.396
66.26	1350.047
66.28	1350.687
66.3	1358.107
66.32	1342.207
66.34	1370.316
66.36	1376.588
66.38	1451.836
66.4	1331.961
66.42	1375.051
66.44	1345.48
66.46	1370.75
66.48	1337.952
66.5	1375.801
66.52	1338.555
66.54	1411.818
66.56	1400.207
66.58	1315.329
66.6	1391.473
66.62	1411.283
66.64	1395.548
66.66	1414.791
66.68	1450.265
66.7	1365.599
66.72	1386.641
66.74	1326.396
66.76	1317.225
66.78	1366.613
66.8	1400.344
66.82	1383.536
66.84	1337.266
66.86	1372.547
66.88	1415.254
66.9	1399.888
66.92	1354.758
66.94	1314.243
66.96	1368.167
66.98	1370.877
67	1274.979
67.02	1355.623
67.04	1373.896
67.06	1347.4
67.08	1319.777
67.1	1338.105
67.12	1372.378
67.14	1341.089
67.16	1344.108
67.18	1326.837
67.2	1386.837
67.22	1350.486
67.24	1374.995
67.26	1340.443
67.28	1358.349
67.3	1402.578
67.32	1296.543
67.34	1357.213
67.36	1377.196
67.38	1334.102
67.4	1375.499
67.42	1423.479
67.44	1293.344
67.46	1424.292
67.48	1319.72
67.5	1376.647
67.52	1374.688
67.54	1375.165
67.56	1360.122
67.58	1379.652
67.6	1422.704
67.62	1408.338
67.64	1351.774
67.66	1435.819
67.68	1384.595
67.7	1362.136
67.72	1359.452
67.74	1417.864
67.76	1318.176
67.78	1367.74
67.8	1324.293
67.82	1351.034
67.84	1347.215
67.86	1335.802
67.88	1427.72
67.9	1428.741
67.92	1381.068
67.94	1333.871
67.96	1329.74
67.98	1431.373
68	1402.357
68.02	1342.568
68.04	1329.372
68.06	1344.261
68.08	1366.637
68.1	1358.053
68.12	1429.495
68.14	1435.523
68.16	1376.755
68.18	1402.605
68.2	1385.011
68.22	1374.692
68.24	1426.965
68.26	1432.338
68.28	1417.406
68.3	1368.346
68.32	1430.615
68.34	1351.703
68.36	1340.954
68.38	1404.313
68.4	1408.746
68.42	1379.033
68.44	1394.903
68.46	1457.032
68.48	1412.723
68.5	1409.678
68.52	1402.406
68.54	1447.758
68.56	1406.245
68.58	1453.219
68.6	1415.877
68.62	1413.241
68.64	1383.314
68.66	1470.268
68.68	1446.394
68.7	1439.58
68.72	1501.43
68.74	1427.767
68.76	1407.296
68.78	1364.918
68.8	1418.586
68.82	1516.18
68.84	1479.385
68.86	1508.657
68.88	1532.802
68.9	1480.563
68.92	1503.146
68.94	1453.418
68.96	1462.657
68.98	1414.751
69	1516.591
69.02	1521.679
69.04	1521.244
69.06	1529.421
69.08	1508.662
69.1	1520.26
69.12	1532.241
69.14	1564.491
69.16	1538.805
69.18	1534.84
69.2	1574.749
69.22	1555.03
69.24	1592.165
69.26	1548.98
69.28	1599.812
69.3	1625.991
69.32	1627.577
69.34	1610.438
69.36	1649.426
69.38	1696.59
69.4	1663.791
69.42	1703.581
69.44	1731.3
69.46	1700.28
69.48	1809.654
69.5	1786.821
69.52	1878.999
69.54	1807.313
69.56	1898.61
69.58	1959.634
69.6	1971.496
69.62	1993.956
69.64	2143.699
69.66	2056.874
69.68	2177.813
69.7	2212.172
69.72	2168.075
69.74	2325.418
69.76	2424.594
69.78	2453.565
69.8	2672.812
69.82	2664.759
69.84	2878.877
69.86	3030.261
69.88	3346.934
69.9	3736.752
69.92	4110.004
69.94	4961.128
69.96	6294.868
69.98	8506.449
70	10855.46
70.02	12076.2
70.04	11830.48
70.06	10270.82
70.08	8637.611
70.1	7338.5
70.12	6352.458
70.14	5932.755
70.16	5935.456
70.18	6536.857
70.2	7384.112
70.22	7723.971
70.24	7461.749
70.26	6442.424
70.28	5598.211
70.3	4750.722
70.32	4059.712
70.34	3527.013
70.36	3200.659
70.38	2987.712
70.4	2818.825
70.42	2512.486
70.44	2410.344
70.46	2407.939
70.48	2271.613
70.5	2197.477
70.52	2054.709
70.54	2066.86
70.56	2075.917
70.58	1993.38
70.6	1933.728
70.62	1891.827
70.64	1812.296
70.66	1827.601
70.68	1788.573
70.7	1673.981
70.72	1761.979
70.74	1738.625
70.76	1649.447
70.78	1741.291
70.8	1619.472
70.82	1547.771
70.84	1591.41
70.86	1549.954
70.88	1545.823
70.9	1499.003
70.92	1511.25
70.94	1542.115
70.96	1545.114
70.98	1460.802
71	1463.555
71.02	1492.333
71.04	1484.791
71.06	1375.293
71.08	1395.16
71.1	1383.444
71.12	1404.958
71.14	1418.625
71.16	1422.963
71.18	1384.659
71.2	1370.155
71.22	1352.269
71.24	1378.844
71.26	1348.395
71.28	1338.127
71.3	1324.54
71.32	1427.753
71.34	1351.655
71.36	1392.725
71.38	1383.141
71.4	1397.568
71.42	1363.971
71.44	1385.248
71.46	1310.203
71.48	1360.513
71.5	1394.974
71.52	1340.718
71.54	1340.282
71.56	1317.637
71.58	1307.902
71.6	1299.773
71.62	1242.415
71.64	1344.167
71.66	1329.172
71.68	1290.262
71.7	1251.178
71.72	1314.669
71.74	1240.951
71.76	1311.162
71.78	1320.082
71.8	1328.103
71.82	1311.57
71.84	1271.639
71.86	1335.202
71.88	1293.204
71.9	1319.485
71.92	1336.074
71.94	1351.801
71.96	1328.577
71.98	1299.011
72	1291.594
72.02	1327.175
72.04	1286.634
72.06	1275.676
72.08	1368.185
72.1	1317.367
72.12	1273.812
72.14	1264.465
72.16	1326.193
72.18	1268.237
72.2	1298.391
72.22	1242.955
72.24	1288.496
72.26	1265.03
72.28	1280.543
72.3	1202.939
72.32	1268.636
72.34	1262.701
72.36	1269.914
72.38	1326.495
72.4	1289.019
72.42	1286.535
72.44	1215.681
72.46	1265.857
72.48	1229.495
72.5	1222.623
72.52	1301.282
72.54	1272.09
72.56	1311.9
72.58	1285.984
72.6	1270.015
72.62	1297.597
72.64	1260.137
72.66	1207.467
72.68	1258.416
72.7	1321.091
72.72	1298.646
72.74	1218.091
72.76	1246.359
72.78	1290.983
72.8	1202.99
72.82	1272.915
72.84	1197.025
72.86	1152.605
72.88	1292.104
72.9	1254.892
72.92	1330.321
72.94	1239.881
72.96	1162.549
72.98	1272.44
73	1199.377
73.02	1196.6
73.04	1248.975
73.06	1206.659
73.08	1290.907
73.1	1242.046
73.12	1304.949
73.14	1213.713
73.16	1235.765
73.18	1242.643
73.2	1258.516
73.22	1239.251
73.24	1218.991
73.26	1157.013
73.28	1231.508
73.3	1272.325
73.32	1330.301
73.34	1223.097
73.36	1225.104
73.38	1214.856
73.4	1213.302
73.42	1234.526
73.44	1258
73.46	1275.48
73.48	1309.798
73.5	1253.25
73.52	1220.539
73.54	1227.524
73.56	1227.47
73.58	1190.314
73.6	1189.676
73.62	1233.823
73.64	1269.121
73.66	1291.189
73.68	1210.772
73.7	1289.066
73.72	1168.104
73.74	1192.457
73.76	1173.13
73.78	1230.209
73.8	1216.088
73.82	1269.952
73.84	1186.042
73.86	1133.166
73.88	1219.332
73.9	1298.272
73.92	1188.825
73.94	1223.989
73.96	1181.331
73.98	1198.367
74	1192.952
74.02	1135.304
74.04	1272.766
74.06	1218.708
74.08	1255.981
74.1	1113.064
74.12	1167.005
74.14	1198.064
74.16	1257.299
74.18	1265.481
74.2	1243.833
74.22	1207.849
74.24	1216.339
74.26	1151.961
74.28	1210.406
74.3	1158.637
74.32	1121.753
74.34	1210.679
74.36	1273.558
74.38	1220.049
74.4	1130.172
74.42	1192.787
74.44	1253.604
74.46	1243.054
74.48	1190.891
74.5	1171.023
74.52	1150.334
74.54	1189.861
74.56	1227.909
74.58	1192.714
74.6	1221.388
74.62	1231.585
74.64	1195.624
74.66	1189.308
74.68	1187.782
74.7	1228.881
74.72	1122.581
74.74	1199.55
74.76	1199.631
74.78	1191.797
74.8	1206.679
74.82	1177.624
74.84	1201.983
74.86	1259.848
74.88	1208.825
74.9	1194.963
74.92	1170.28
74.94	1181.892
74.96	1228.515
74.98	1195.859
75	1164.194
75.02	1143.252
75.04	1213.57
75.06	1225.089
75.08	1211.55
75.1	1160.59
75.12	1211.797
75.14	1170.788
75.16	1222.205
75.18	1213.1
75.2	1182.273
75.22	1158.781
75.24	1182.466
75.26	1182.528
75.28	1147.893
75.3	1148.154
75.32	1189.907
75.34	1184.701
75.36	1180.62
75.38	1201.569
75.4	1161.312
75.42	1191.686
75.44	1157.131
75.46	1206.377
75.48	1240.957
75.5	1146.59
75.52	1215.467
75.54	1225.068
75.56	1200.314
75.58	1171.03
75.6	1207.12
75.62	1161.079
75.64	1154.902
75.66	1154.405
75.68	1210.936
75.7	1173.975
75.72	1229.58
75.74	1312.878
75.76	1186.599
75.78	1198.76
75.8	1183.475
75.82	1238.007
75.84	1146.72
75.86	1196.453
75.88	1236.941
75.9	1154.777
75.92	1136.986
75.94	1192.932
75.96	1216.792
75.98	1117.362
76	1200.229
76.02	1165.45
76.04	1195.699
76.06	1191.843
76.08	1158.132
76.1	1136.213
76.12	1193.93
76.14	1207.139
76.16	1216.75
76.18	1190.38
76.2	1177.835
76.22	1213.06
76.24	1224.708
76.26	1185.231
76.28	1176.4
76.3	1153.941
76.32	1183.076
76.34	1190.135
76.36	1187.849
76.38	1134.818
76.4	1197.213
76.42	1152.651
76.44	1217.58
76.46	1192.806
76.48	1129.935
76.5	1172.957
76.52	1124.743
76.54	1203.936
76.56	1163.983
76.58	1164.866
76.6	1176.08
76.62	1211.067
76.64	1194.787
76.66	1155.631
76.68	1174.303
76.7	1184.318
76.72	1201.818
76.74	1115.501
76.76	1143.695
76.78	1152.831
76.8	1144.896
76.82	1164.005
76.84	1197.262
76.86	1220.614
76.88	1264.294
76.9	1199.69
76.92	1187.639
76.94	1198.246
76.96	1226.948
76.98	1194.865
77	1202.94
77.02	1183
77.04	1194.769
77.06	1137.942
77.08	1169.551
77.1	1157.965
77.12	1193.281
77.14	1185.453
77.16	1170.442
77.18	1233.175
77.2	1180.707
77.22	1211.034
77.24	1181.523
77.26	1205.266
77.28	1205.429
77.3	1221.158
77.32	1186.015
77.34	1148.804
77.36	1181.811
77.38	1174.867
77.4	1178.306
77.42	1180.668
77.44	1214.236
77.46	1159.732
77.48	1236.637
77.5	1228.779
77.52	1139.824
77.54	1146.756
77.56	1129.121
77.58	1179.177
77.6	1155.68
77.62	1151.072
77.64	1220.944
77.66	1242.63
77.68	1203.894
77.7	1178.481
77.72	1206.158
77.74	1209.856
77.76	1136.434
77.78	1228.791
77.8	1192.503
77.82	1193.222
77.84	1178.145
77.86	1179.363
77.88	1201.744
77.9	1176.667
77.92	1175.26
77.94	1213.419
77.96	1210.823
77.98	1170.213
78	1180.554
78.02	1213.148
78.04	1209.043
78.06	1263.697
78.08	1279.183
78.1	1260.801
78.12	1298.244
78.14	1269.866
78.16	1262.813
78.18	1337.247
78.2	1254.403
78.22	1270.664
78.24	1272.324
78.26	1357.14
78.28	1348.304
78.3	1330.32
78.32	1324.779
78.34	1309.442
78.36	1437.97
78.38	1389.734
78.4	1454.51
78.42	1431.362
78.44	1389.766
78.46	1473.573
78.48	1511.545
78.5	1514.65
78.52	1592.041
78.54	1624.773
78.56	1640.212
78.58	1647.907
78.6	1702.785
78.62	1790.47
78.64	1724.018
78.66	1856.942
78.68	1810.477
78.7	1781.358
78.72	1823.831
78.74	1900.38
78.76	1869.68
78.78	1970.994
78.8	1867.199
78.82	1921.356
78.84	1956.824
78.86	1991.343
78.88	1981.167
78.9	1865.161
78.92	1976.334
78.94	2010.12
78.96	1951.072
78.98	1946.642
79	1839.977
79.02	1879.561
79.04	1871.862
79.06	1888.11
79.08	1804.345
79.1	1818.531
79.12	1704.655
79.14	1752.145
79.16	1758.037
79.18	1664.739
79.2	1669.113
79.22	1584.572
79.24	1608.608
79.26	1548.453
79.28	1555.512
79.3	1530.786
79.32	1474.478
79.34	1436.518
79.36	1435.969
79.38	1398.831
79.4	1369.018
79.42	1382.794
79.44	1321.45
79.46	1333.429
79.48	1294.815
79.5	1349.352
79.52	1308.152
79.54	1267.713
79.56	1271.765
79.58	1227.329
79.6	1252.94
79.62	1280.013
79.64	1239.958
79.66	1283.709
79.68	1198.948
79.7	1198.52
79.72	1217.02
79.74	1212.302
79.76	1155.953
79.78	1201.727
79.8	1187.328
79.82	1185.78
79.84	1182.993
79.86	1226.693
79.88	1188.051
79.9	1188.588
79.92	1225.878
79.94	1166.613
79.96	1145.908
79.98	1106.204
80	1099.8
80.02	1158.228
80.04	1146.007
80.06	1141.379
80.08	1214.974
80.1	1155.533
80.12	1163.177
80.14	1124.179
80.16	1130.402
80.18	1150.865
80.2	1157.111
80.22	1184.407
80.24	1146.746
80.26	1108.396
80.28	1102.701
80.3	1087.244
80.32	1100.637
80.34	1133.806
80.36	1151.08
80.38	1161.132
80.4	1118.593
80.42	1149.655
80.44	1129.348
80.46	1047.758
80.48	1061.309
80.5	1104.452
80.52	1092.625
80.54	1102.353
80.56	1118.191
80.58	1180.608
80.6	1059.009
80.62	1123.004
80.64	1104.415
80.66	1107.671
80.68	1208.394
80.7	1124.526
80.72	1093.665
80.74	1111.43
80.76	1087.949
80.78	1055.709
80.8	1140.451
80.82	1071.331
80.84	1121.799
80.86	1125.083
80.88	1100.201
80.9	1096.778
80.92	1042.3
80.94	1093.656
80.96	1101.867
80.98	1061.048
81	1122.013
81.02	1113.348
81.04	1129.005
81.06	1114.743
81.08	1100.97
81.1	1107.776
81.12	1121.824
81.14	1065.951
81.16	1090.664
81.18	1077.602
81.2	1130.011
81.22	1095.84
81.24	1139.772
81.26	1143.579
81.28	1169.11
81.3	1124.509
81.32	1093.332
81.34	1093.156
81.36	1110.499
81.38	1110.26
81.4	1112.253
81.42	1074.662
81.44	1124.477
81.46	1075.439
81.48	1079.234
81.5	1092.885
81.52	1148.094
81.54	1128.987
81.56	1097.773
81.58	1083.172
81.6	1122.394
81.62	1063.955
81.64	1162.747
81.66	1208.472
81.68	1153.763
81.7	1110.583
81.72	1128.121
81.74	1174.357
81.76	1093.748
81.78	1133.976
81.8	1099.917
81.82	1130.643
81.84	1096.716
81.86	1082.85
81.88	1140.812
81.9	1122.034
81.92	1119.434
81.94	1132.608
81.96	1144.847
81.98	1158.769
82	1154.379
82.02	1096.107
82.04	1127.703
82.06	1117.318
82.08	1064.471
82.1	1120.417
82.12	1141.386
82.14	1126.931
82.16	1149.728
82.18	1129.492
82.2	1150.2
82.22	1161.109
82.24	1158.104
82.26	1070.874
82.28	1177.777
82.3	1139.685
82.32	1180.377
82.34	1230.227
82.36	1168.409
82.38	1166.977
82.4	1157.554
82.42	1199.814
82.44	1192.626
82.46	1168.336
82.48	1192.842
82.5	1173.818
82.52	1234.258
82.54	1238.888
82.56	1224.343
82.58	1220.435
82.6	1282.707
82.62	1280.73
82.64	1283.213
82.66	1236.714
82.68	1273.246
82.7	1303.957
82.72	1326.7
82.74	1380.499
82.76	1318.359
82.78	1363.586
82.8	1444.689
82.82	1419.539
82.84	1509.267
82.86	1487.255
82.88	1553.941
82.9	1684.025
82.92	1807.725
82.94	2016.919
82.96	2190.984
82.98	2523.076
83	2615.217
83.02	2539.498
83.04	2458.231
83.06	2207.642
83.08	2101.156
83.1	2033.127
83.12	1913.988
83.14	1807.418
83.16	1732.12
83.18	1793.012
83.2	1920.673
83.22	2033.922
83.24	1975.891
83.26	2018.063
83.28	1849.256
83.3	1789.866
83.32	1719.504
83.34	1672.184
83.36	1530.798
83.38	1461.15
83.4	1462.251
83.42	1350.208
83.44	1375.115
83.46	1320.176
83.48	1366.209
83.5	1353.438
83.52	1251.671
83.54	1269.664
83.56	1215.174
83.58	1235.462
83.6	1234.88
83.62	1165.172
83.64	1179.604
83.66	1239.961
83.68	1130.154
83.7	1136.621
83.72	1120.252
83.74	1168.72
83.76	1197.268
83.78	1245.543
83.8	1184.127
83.82	1118.02
83.84	1132.483
83.86	1137.739
83.88	1154.765
83.9	1134.862
83.92	1138.096
83.94	1158.131
83.96	1096.065
83.98	1156.968
84	1105.484
84.02	1053.141
84.04	1072.429
84.06	1091.955
84.08	1157.471
84.1	1137.637
84.12	1080.816
84.14	1083.956
84.16	1045.291
84.18	1116.992
84.2	1062.762
84.22	1086.899
84.24	1043.568
84.26	1041.612
84.28	1072.156
84.3	1060.173
84.32	1081.604
84.34	1076.294
84.36	1071.069
84.38	1060.237
84.4	1051.2
84.42	1069.262
84.44	1086.139
84.46	1044.876
84.48	1047.111
84.5	1044.265
84.52	1070.343
84.54	1082.405
84.56	1095.875
84.58	1032.238
84.6	1054.948
84.62	1085.045
84.64	1060.604
84.66	1063.671
84.68	1033.533
84.7	1044.481
84.72	1114.722
84.74	1077.588
84.76	1047.347
84.78	1046.158
84.8	1085.971
84.82	1077.623
84.84	1004.093
84.86	1077.235
84.88	1026.921
84.9	1034.127
84.92	1061.807
84.94	1067.378
84.96	1052.909
84.98	1028.581
85	991.1646
85.02	954.8677
85.04	1023.906
85.06	1077.099
85.08	1031.503
85.1	1056.156
85.12	1058.339
85.14	1037.994
85.16	1086.087
85.18	1045.279
85.2	1076.158
85.22	1096.853
85.24	1069.121
85.26	983.787
85.28	1077.888
85.3	1053.356
85.32	1004.479
85.34	1014.224
85.36	984.2468
85.38	1034.405
85.4	1066.736
85.42	997.6769
85.44	1016.586
85.46	999.6791
85.48	1020.891
85.5	1034.481
85.52	1016.107
85.54	1023.141
85.56	1037.847
85.58	1048.145
85.6	1063.924
85.62	1061.438
85.64	1052.428
85.66	1061.54
85.68	1006.504
85.7	1038.568
85.72	1064.7
85.74	1026.823
85.76	1051.838
85.78	1014.591
85.8	991.0253
85.82	1044.5
85.84	1056.62
85.86	1007.945
85.88	1074.883
85.9	974.259
85.92	1007.89
85.94	1032.268
85.96	1027.974
85.98	1051.554
86	1038.277
86.02	1033.354
86.04	1010.923
86.06	1023.462
86.08	1054.3
86.1	955.3224
86.12	1053.534
86.14	1049.003
86.16	1041.918
86.18	1017.607
86.2	1011.051
86.22	1018.478
86.24	1018.772
86.26	989.0354
86.28	1037.702
86.3	998.8133
86.32	986.9921
86.34	1009.82
86.36	1004.64
86.38	961.1235
86.4	1020.901
86.42	1005.438
86.44	1095.812
86.46	1079.077
86.48	982.0486
86.5	1036.336
86.52	989.4591
86.54	995.0038
86.56	957.5299
86.58	1011.208
86.6	1016.846
86.62	1001.778
86.64	1019.191
86.66	1039.313
86.68	1008.75
86.7	1034.911
86.72	979.4189
86.74	1015.178
86.76	1043.317
86.78	1055.971
86.8	1016.874
86.82	973.5453
86.84	987.057
86.86	975.1664
86.88	1008.21
86.9	977.3849
86.92	1000.855
86.94	1044.633
86.96	1071.834
86.98	1058.466
87	976.4316
87.02	1064.453
87.04	1016.823
87.06	997.5527
87.08	995.8434
87.1	969.5074
87.12	1004.216
87.14	1031.524
87.16	994.6282
87.18	1016.2
87.2	1001.185
87.22	1001.274
87.24	1044.991
87.26	1030.638
87.28	959.3575
87.3	966.6024
87.32	990.3022
87.34	937.619
87.36	995.1763
87.38	1059.6
87.4	982.7771
87.42	1019.12
87.44	1099.984
87.46	1001.167
87.48	1011.477
87.5	992.1514
87.52	990.6411
87.54	962.0381
87.56	966.7902
87.58	953.4932
87.6	973.3577
87.62	981.8994
87.64	995.1006
87.66	983.7437
87.68	977.3333
87.7	952.5717
87.72	973.4444
87.74	1021.242
87.76	984.4938
87.78	1033.647
87.8	1001.943
87.82	1001.796
87.84	1005.04
87.86	1000.522
87.88	951.2125
87.9	1030.067
87.92	1005.666
87.94	1016.029
87.96	1034.675
87.98	967.1713
88	985.7687
88.02	1011.412
88.04	1000.131
88.06	969.382
88.08	945.4843
88.1	922.8235
88.12	1039.823
88.14	980.0605
88.16	976.1367
88.18	988.4805
88.2	978.9903
88.22	990.367
88.24	996.7967
88.26	1032.554
88.28	982.0114
88.3	1004.077
88.32	1018.862
88.34	1004.73
88.36	1034.981
88.38	1036.897
88.4	996.231
88.42	985.9874
88.44	1030.369
88.46	969.7911
88.48	1059.851
88.5	1011.414
88.52	1011.955
88.54	985.8496
88.56	932.241
88.58	1001.446
88.6	983.9509
88.62	957.1631
88.64	942.9059
88.66	1020.523
88.68	986.5459
88.7	1015.918
88.72	980.9586
88.74	968.7902
88.76	1004.69
88.78	981.8004
88.8	901.8553
88.82	973.4504
88.84	987.5356
88.86	987.4646
88.88	979.0043
88.9	980.7012
88.92	969.1234
88.94	950.285
88.96	1007.116
88.98	962.2655
89	951.9995
89.02	1037.72
89.04	944.3774
89.06	960.5892
89.08	933.7636
89.1	987.9584
89.12	1005.615
89.14	956.2458
89.16	1016.44
89.18	1008.258
89.2	979.1851
89.22	968.9899
89.24	902.9612
89.26	944.2349
89.28	1040.971
89.3	974.2325
89.32	1015.201
89.34	991.4212
89.36	944.8358
89.38	1006.493
89.4	1004.61
89.42	1023.062
89.44	989.6635
89.46	998.248
89.48	966.9771
89.5	990.7469
89.52	1002.734
89.54	1008.592
89.56	977.161
89.58	992.3794
89.6	964.5386
89.62	940.7543
89.64	977.2036
89.66	931.2541
89.68	958.0958
89.7	989.385
89.72	964.3547
89.74	999.9271
89.76	978.9205
89.78	956.0375
89.8	933.0012
89.82	1003.68
89.84	965.0436
89.86	932.0457
89.88	973.5806
89.9	953.0705
89.92	951.366
89.94	946.8865
89.96	972.201
89.98	1005.317
90	1031.164
90.02	966.1979
90.04	1052.181
90.06	983.3161
90.08	941.2812
90.1	956.8864
90.12	1035.69
90.14	998.5662
90.16	1024.548
90.18	974.1507
90.2	928.8301
90.22	975.3949
90.24	936.2899
90.26	1006.506
90.28	978.6938
90.3	1043.767
90.32	983.1498
90.34	998.6078
90.36	994.4423
90.38	987.1819
90.4	966.5382
90.42	948.4171
90.44	969.8
90.46	1002.998
90.48	967.8671
90.5	961.0842
90.52	966.2949
90.54	981.3846
90.56	986.8887
90.58	984.9174
90.6	1000.589
90.62	969.0757
90.64	997.9661
90.66	1023.8
90.68	952.938
90.7	976.071
90.72	1010.551
90.74	965.726
90.76	942.7345
90.78	940.464
90.8	999.2161
90.82	981.0358
90.84	1045.955
90.86	976.4274
90.88	1018.334
90.9	999.8317
90.92	911.3491
90.94	996.8605
90.96	1049.307
90.98	1036.617
91	1005.529
91.02	975.3798
91.04	1018.003
91.06	1025.401
91.08	998.6092
91.1	1029.031
91.12	1047.251
91.14	942.0324
91.16	974.631
91.18	994.4727
91.2	969.6494
91.22	1047.984
91.24	1033.464
91.26	984.0443
91.28	1043.051
91.3	904.8282
91.32	989.3754
91.34	1010.313
91.36	1018.069
91.38	990.2093
91.4	992.3431
91.42	1070.469
91.44	965.7277
91.46	985.9704
91.48	1019.025
91.5	1049.275
91.52	966.9429
91.54	1002.381
91.56	1042.852
91.58	1028.426
91.6	1050.021
91.62	918.1244
91.64	997.3767
91.66	1004.949
91.68	1065.794
91.7	980.2159
91.72	1015.416
91.74	1024.436
91.76	997.5092
91.78	1052.512
91.8	1009.174
91.82	985.2433
91.84	1033.803
91.86	1004.942
91.88	1013.762
91.9	945.6379
91.92	973.3651
91.94	1002.408
91.96	978.7831
91.98	955.9254
92	992.6417
92.02	996.7579
92.04	957.7363
92.06	948.3793
92.08	1005.07
92.1	963.4004
92.12	986.3048
92.14	989.7305
92.16	1026.314
92.18	1086.325
92.2	976.2993
92.22	984.7582
92.24	975.9607
92.26	969.2084
92.28	1019.95
92.3	1019.569
92.32	994.157
92.34	1018.18
92.36	1042.7
92.38	1011.406
92.4	954.2004
92.42	973.6602
92.44	976.5443
92.46	957.9526
92.48	963.3658
92.5	984.4952
92.52	992.0394
92.54	1067.391
92.56	997.8051
92.58	972.8651
92.6	982.038
92.62	957.6174
92.64	1011.688
92.66	984.9254
92.68	978.5222
92.7	1002.49
92.72	1007.358
92.74	1014.223
92.76	1005.1
92.78	998.1722
92.8	989.5917
92.82	1033.799
92.84	964.1257
92.86	982.2086
92.88	1000.343
92.9	1047.525
92.92	982.3201
92.94	942.2454
92.96	970.8727
92.98	953.7455
93	948.4597
93.02	1048.012
93.04	1025.898
93.06	982.6104
93.08	941.1023
93.1	1071.553
93.12	1021.461
93.14	962.1731
93.16	999.8151
93.18	943.2798
93.2	964.1546
93.22	981.319
93.24	1024.282
93.26	1000.697
93.28	977.0922
93.3	989.5303
93.32	931.0072
93.34	985.014
93.36	1038.139
93.38	968.5816
93.4	946.1143
93.42	966.3309
93.44	964.5187
93.46	1024.839
93.48	1028.226
93.5	992.6208
93.52	1030.474
93.54	964.3868
93.56	978.8878
93.58	980.8606
93.6	992.553
93.62	980.393
93.64	991.6008
93.66	1037.17
93.68	1011.302
93.7	993.6263
93.72	1008.984
93.74	983.9529
93.76	994.2762
93.78	947.3893
93.8	1017.326
93.82	1057.002
93.84	984.7353
93.86	1051.206
93.88	1032.731
93.9	955.1031
93.92	1001.405
93.94	1061.032
93.96	1018.075
93.98	953.3483
94	984.6931
94.02	1009.607
94.04	998.533
94.06	989.9932
94.08	923.0185
94.1	1011.558
94.12	971.6496
94.14	965.5204
94.16	930.9396
94.18	1047.504
94.2	1010.49
94.22	975.8805
94.24	1012.907
94.26	999.413
94.28	968.0931
94.3	981.559
94.32	1063.006
94.34	991.3439
94.36	1006.708
94.38	1004.071
94.4	1052.584
94.42	1052.664
94.44	985.6951
94.46	960.0599
94.48	986.0428
94.5	1034.04
94.52	1032.202
94.54	1000.247
94.56	1062.082
94.58	1074.236
94.6	966.9807
94.62	1054.032
94.64	1011.054
94.66	1033.416
94.68	1039.444
94.7	1020.869
94.72	1053.073
94.74	1069.827
94.76	1039.662
94.78	1040.086
94.8	1066.012
94.82	1014.041
94.84	1070.324
94.86	1082.069
94.88	1103.731
94.9	1123.713
94.92	1125.519
94.94	1113.498
94.96	1050.624
94.98	1094.489
95	1075.467
95.02	1089.523
95.04	1135.877
95.06	1144.191
95.08	1102.608
95.1	1130.047
95.12	1115.119
95.14	1126.887
95.16	1138.765
95.18	1148.74
95.2	1185.088
95.22	1153.224
95.24	1159.779
95.26	1209.353
95.28	1213.632
95.3	1196.309
95.32	1201.952
95.34	1263.004
95.36	1244.725
95.38	1254.77
95.4	1336.029
95.42	1295.283
95.44	1346.695
95.46	1403.807
95.48	1358.407
95.5	1414.126
95.52	1490.196
95.54	1678.762
95.56	1730.805
95.58	1765.53
95.6	1866.37
95.62	1815.752
95.64	1898.243
95.66	1801.135
95.68	1785.068
95.7	1716.395
95.72	1772.305
95.74	1649.98
95.76	1604.114
95.78	1619.921
95.8	1612.801
95.82	1586.983
95.84	1557.578
95.86	1638.57
95.88	1620.763
95.9	1682.183
95.92	1620.259
95.94	1645.52
95.96	1641.489
95.98	1609.937
96	1556.757
96.02	1542.844
96.04	1482.104
96.06	1413.356
96.08	1460.439
96.1	1395.519
96.12	1312.511
96.14	1309.528
96.16	1262.387
96.18	1275.406
96.2	1256.908
96.22	1267.139
96.24	1230.754
96.26	1181.138
96.28	1208.66
96.3	1240.243
96.32	1171.7
96.34	1243.907
96.36	1155.938
96.38	1101.364
96.4	1127.532
96.42	1126.378
96.44	1135.426
96.46	1048.887
96.48	1090.9
96.5	1083
96.52	1016.971
96.54	1084.806
96.56	1157.766
96.58	1055.526
96.6	1139.967
96.62	1058.351
96.64	1170.362
96.66	1099.238
96.68	1049.276
96.7	1038.398
96.72	1046.359
96.74	1051.408
96.76	1020.869
96.78	1031.624
96.8	996.5862
96.82	999.1802
96.84	1022.309
96.86	962.0874
96.88	970.5259
96.9	937.6354
96.92	981.7247
96.94	1063.501
96.96	1034.252
96.98	1014.471
97	965.7902
97.02	1004.407
97.04	989.6226
97.06	1020.619
97.08	1062.891
97.1	984.598
97.12	1000.361
97.14	1033.272
97.16	986.2809
97.18	991.2127
97.2	951.9733
97.22	1016.39
97.24	998.1104
97.26	1004.131
97.28	1037.885
97.3	953.2809
97.32	996.2927
97.34	959.6857
97.36	1029.277
97.38	966.917
97.4	1019.791
97.42	965.8955
97.44	946.4929
97.46	969.9579
97.48	977.2419
97.5	943.4326
97.52	982.7426
97.54	951.2382
97.56	992.7277
97.58	1027.011
97.6	1005.27
97.62	966.2126
97.64	982.4782
97.66	919.8367
97.68	983.3632
97.7	960.3187
97.72	987.1357
97.74	1033.229
97.76	930.203
97.78	1080.224
97.8	981.2407
97.82	954.0114
97.84	937.3849
97.86	970.214
97.88	987.4812
97.9	922.0748
97.92	979.71
97.94	1020.349
97.96	961.5907
97.98	998.7677
98	985.6031
98.02	927.0103
98.04	976.7022
98.06	882.3561
98.08	958.5871
98.1	977.4532
98.12	989.0056
98.14	943.7913
98.16	976.829
98.18	942.6995
98.2	971.4314
98.22	971.2411
98.24	945.658
98.26	902.0557
98.28	937.1201
98.3	941.0557
98.32	978.8005
98.34	1004.453
98.36	990.1044
98.38	986.6705
98.4	999.3434
98.42	943.4295
98.44	941.0961
98.46	1015.306
98.48	1016.737
98.5	1012.052
98.52	991.1807
98.54	985.7698
98.56	933.3367
98.58	985.2222
98.6	980.9623
98.62	950.1549
98.64	929.6476
98.66	972.8173
98.68	981.0353
98.7	946.5565
98.72	935.8989
98.74	989.4582
98.76	998.0545
98.78	953.3271
98.8	1018.542
98.82	969.4249
98.84	954.2254
98.86	947.1739
98.88	984.8399
98.9	1020.892
98.92	996.4119
98.94	990.5742
98.96	987.3644
98.98	976.9816
99	969.0997
99.02	945.3197
99.04	980.1458
99.06	960.3192
99.08	956.9795
99.1	942.2042
99.12	1002.053
99.14	998.5527
99.16	981.25
99.18	982.8752
99.2	973.9639
99.22	988.381
99.24	959.7358
99.26	981.5042
99.28	947.6464
99.3	939.3499
99.32	960.4823
99.34	948.0444
99.36	1000.626
99.38	950.0797
99.4	1023.253
99.42	974.4066
99.44	944.1131
99.46	961.8006
99.48	981.1253
99.5	883.6705
99.52	960.4702
99.54	1018.907
99.56	936.3913
99.58	989.8996
99.6	959.0706
99.62	960.3148
99.64	984.5672
99.66	1031.946
99.68	970.5181
99.7	971.6338
99.72	1021.82
99.74	910.8831
99.76	924.7234
99.78	935.1514
99.8	974.7476
99.82	982.2916
99.84	980.1987
99.86	950.7256
99.88	979.1916
99.9	953.2095
99.92	946.0024
99.94	954.6022
99.96	994.7806
99.98	947.6964
100	987.402
